tree
version=v4
num_class=1
num_tree_per_iteration=1
label_index=0
max_feature_idx=28
objective=binary sigmoid:1
feature_names=Age Gender Weight Height Medical_Conditions Medication Smoker Alcohol_Consumption Day_of_Week Sleep_Duration Deep_Sleep_Duration REM_Sleep_Duration Wakeups Snoring Heart_Rate Blood_Oxygen_Level ECG Calories_Intake Water_Intake Mood Skin_Temperature Body_Fat_Percentage Muscle_Mass Health_Score Anomaly_Flag BMI Sleep_Quality Stress_Ratio Lifestyle_Score
feature_infos=[10:85] [0:2] [30.001124813045752:150.97848200873625] [140.0012515956146:200.99335479118812] [0:2] [0:1] [0:1] [0:2] [0:6] [4.0006906555426003:9.9993702476450714] [0.50059780107217622:9.9306424295629991] [0.00080513487031190001:9.4485122834210244] [0:4] [0:1] [50:180] [90.002517900292105:100.99908648267376] [0:1] [1200.0118295956836:2999.3885686488902] [0.50007872587934188:3.4996071576807859] [0:3] [32.000277095680858:38.999369532403854] [10.001216750504968:34.984975808011576] [20.00033552870093:79.993863405496668] [0:100] [0:1] [7.5260565728357101:75.809449891664741] [0.050711815411383775:0.99989959361495129] [4.58361503884647:35.771411829439842] [0.0001690053455935118:0.0028236507702228929]
tree_sizes=3837 3829 3844 3819 3835 2985 3860 3847 3859 3830 3859 3805 3850 3839 3850 3849 3848 3841 3861 3873 3642 3873 3860 3846 3855 3781 3814 3862 3846 3866 3854 3820 3875 3810 3839 3873 3623 3864 3857 3867 3887 3865 3845 3832 3850 3839 3524 3812 3856 3868 3821 3848 3858 3862 3866 3871 3852 3841 3854 3859 3862 3862 3841 3848 3880 3541 3858 3854 3882 3861 3843 3848 3866 3866 3851 3862 3830 3866 3596 3893 3859 3882 3843 3870 3877 3251 3844 3867 3866 3864 3859 3860 3842 3833 3850 3859 3857 3877 3843 3871 3869 3825 3855 3849 3871 3866 3849 3866 3300 3847 3867 3867 3841 3881 3849 3860 3856 3858 3870 3828 3801 3855 3836 3854 3835 3881 3224 3786 3864 3842 3828 3825 3837 3324 3855 3856 3849 3854 3857 3864 3854 3843 3857 3837 3865 3834 3857 3838 3865 3877 3747 3701 3856 3856 3526 3830 3849 3438 3844 3849 3858 3866 3869 3860 3860 3862 3793 3615 3841 3859 3852 3849 3629 3885 3890 3839 3872 3860 3862 3847 2792 3848 3839 3853 3341 3846 3855 3382 3860 3868 3545 3612 3845 3841 3865 3816 3849 3860 3864 3837 3535 3868 3851 3866 3809 3854 3865 3860 3851 3831 3876 3888 3868 3838 3848 3866 3860 3817 3855 3828 3870 3888 3854 3820 3705 3854 3724 3847 3862 3878 3688 3863 3861 3822 3839 3876 3875 3528 3843 3854 3808 3844 3212 3797 3849 3864 3807 3850 3840 3857 3392 3848 3835 2386 3857 3788 3836 3831 3835 3681 3852 3817 3868 3863 3838 3865 3848 3538 3466 3842 3833 3851 3816 3879 3841 3098 3836 3804 3859 3857 3872 3859 3887 3865 3847 3838 3845 3603 3696 3872 3834 3840 3754 3857 3841 3878 3850 3848 3663 3852 3863 3873

Tree=0
num_leaves=35
num_cat=0
split_feature=28 18 21 17 7 21 20 28 3 27 9 15 15 27 17 9 9 18 18 17 20 9 21 9 9 17 4 27 15 20 3 15 17 19
split_gain=9.02302 8.08355 9.66405 9.14769 8.13499 12.9605 8.09725 7.83811 9.18926 11.9441 7.7374 10.385 16.207 10.6259 10.0423 7.63883 10.2245 6.98163 8.02842 6.94007 6.88244 7.52598 6.80463 6.24385 6.17323 8.63892 17.2859 7.77659 6.82944 6.08507 6.05199 6.03011 5.90714 5.4474
threshold=0.0013592349230198816 3.4219470241380288 18.386146719214022 2065.8908817166312 1.5000000000000002 25.976999956392479 35.805819296570554 0.0012632371210948977 145.66360392343049 8.469504526032166 6.6041950760227488 91.47913272342187 92.344959319237574 7.6515351063174615 1616.5313981711195 4.378465724600467 4.981559633023493 2.5383303896070117 3.0334260636456074 1526.865166217149 33.543290116672473 9.3069499866116967 31.490208964898876 7.6214777597381174 5.7858938609407913 1976.3646108549062 1.0000000180025095e-35 24.840781196121618 90.684819116730566 32.334490082355295 196.80857165005298 94.300557742085729 2073.4342587544947 2.5000000000000004
decision_type=2 2 2 2 2 2 2 2 2 2 2 2 2 2 2 2 2 2 2 2 2 2 2 2 2 2 2 2 2 2 2 2 2 2
left_child=7 3 -3 15 5 -5 32 10 -9 31 24 13 19 -12 -14 17 -17 -2 -19 -13 33 -22 -7 -18 25 29 -27 28 -26 -1 -15 -10 -4 -11
right_child=1 2 6 4 -6 22 -8 8 9 20 11 12 14 30 -16 16 23 18 -20 -21 21 -23 -24 -25 27 26 -28 -29 -30 -31 -32 -33 -34 -35
leaf_value=0.018883356441698893 -0.0082613600468963225 0.033639927344115757 0.00080193869861986268 0.0098148701106888347 -0.030112667083074644 -0.044832600949972282 -0.016783646584081331 -0.016320523235697638 -0.035234848826776875 0.046237707375697268 -0.0094247438016115386 0.018403816537124189 -0.0065577928007618412 0.018119789063433586 0.0042736349790259706 -0.018483747675928908 0.0017097986710669104 0.05071636437807589 0.002644649987074785 -0.015477978890648945 0.009070747267001562 0.047628176048617014 -0.0037512699642817263 -0.0066093070051630454 -0.025330198983059955 0.013807783371929101 -0.0019237527737992503 0.027173231491189342 -0.0055028228113076956 -0.0078138805373916993 -0.0090892489901760447 0.0034945023594948402 0.045481743773822109 0.0039470538987015913
leaf_weight=7.8750385940074912 7.1168445050716427 10.693695187568663 7.6819798946380633 18.930279940366745 22.268439620733261 8.4156027436256391 12.731341540813444 11.046465903520582 5.9865737259387961 10.886753886938093 17.979027152061462 5.6250275671482077 89.53183451294899 79.494539320468903 531.42381942272186 39.315519958734512 167.88030725717545 6.5710150897502881 6.3709360361099243 63.474179536104202 58.287922024726868 4.8808741867542258 6.9308061599731436 155.46312448382378 17.219077974557877 91.478217303752899 198.39235198497772 5.8145760893821707 180.00790145993233 126.23755237460136 7.6784697175025931 8.0575667619705182 4.1297004520893097 4.1226800978183737
leaf_count=35 27 51 31 80 74 25 46 40 19 55 68 25 345 350 2176 141 678 34 26 232 245 25 27 599 59 394 785 27 698 483 29 33 21 17
internal_value=2.6077e-08 -0.00361211 0.0101215 -0.00473154 -0.0159984 -0.00653335 -7.24198e-05 0.00112389 0.00909969 0.0122382 0.000539348 0.00250725 0.0011578 0.011287 0.00270065 -0.00304375 -0.00405622 0.0148248 0.027909 -0.0125881 0.0168441 0.0122856 -0.0269522 -0.00227309 -0.00194683 9.98301e-05 0.00302626 -0.00624599 -0.00728817 -0.00617577 0.0156391 -0.0128563 0.01742 0.0352208
internal_weight=2000 474.5 35.2367 439.263 56.5451 34.2767 24.543 1525.5 103.269 92.2224 1422.23 795.207 690.055 105.152 620.956 382.718 362.659 20.0588 12.942 69.0992 78.1782 63.1688 15.3464 323.343 627.025 423.983 289.871 203.042 197.227 134.113 87.173 14.0441 11.8117 15.0094
internal_count=8000 1860 149 1711 206 132 98 6140 434 394 5706 3225 2778 447 2521 1505 1418 87 60 257 342 270 52 1277 2481 1697 1179 784 757 518 379 52 52 72
is_linear=0
shrinkage=1


Tree=1
num_leaves=35
num_cat=0
split_feature=23 15 23 15 9 23 23 23 15 23 9 23 9 9 17 9 27 9 15 9 0 25 15 23 14 15 9 23 15 23 23 15 7 23
split_gain=75.6152 39.6793 39.0257 28.7488 34.9044 26.9458 26.1069 26.0584 21.6952 39.3587 35.831 28.924 20.0211 18.8947 15.72 14.572 14.3406 13.6607 13.6125 10.5313 9.77402 13.5876 10.2418 12.2565 9.67293 8.78224 10.9428 16.9326 8.75638 8.96284 8.60024 8.54901 8.25109 7.66826
threshold=50.495247240720154 96.488297960139406 20.263869396103605 91.47913272342187 5.7858938609407913 36.850630632406784 32.812728106940462 38.480774348604619 96.799230210220273 71.634115218996996 8.7167045490636621 61.278439646236755 7.3851530996468826 5.2108866331964991 2481.5975799980715 7.249673633015151 7.9585156412995355 8.8711774491309132 99.112509629639803 5.0516021581271469 60.500000000000007 21.957127878327768 94.582973240901609 54.706849691224441 168.50000000000003 91.522749926371986 5.8983678950068716 14.126849313982323 98.627683361859241 47.192504181815735 79.149649238345418 97.73205908060369 1.0000000180025095e-35 84.326836416131954
decision_type=2 2 2 2 2 2 2 2 2 2 2 2 2 2 2 2 2 2 2 2 2 2 2 2 2 2 2 2 2 2 2 2 2 2
left_child=1 2 25 6 7 -6 15 -5 12 10 11 13 -2 -10 17 -4 -8 30 -13 28 22 -22 -14 -24 -23 26 27 -1 29 32 -11 -12 -3 -19
right_child=8 19 3 4 5 -7 16 -9 9 14 31 18 20 -15 -16 -17 -18 33 -20 -21 21 24 23 -25 -26 -27 -28 -29 -30 -31 -32 -33 -34 -35
leaf_value=-0.025613988305475104 0.031246067692338696 0.001290919264853997 0.0089438596805908929 -0.0009809797939090998 -0.020722555665984937 -0.0043579020002002143 -0.0020679673453520781 0.021614005866841427 0.0064151512404173987 0.011136834018419067 -0.01326109333923913 0.018829557300398897 0.018167710941171398 -0.013045250799918581 0.028513740000463157 -0.012465845156360695 0.029864700398296532 -0.0042976617202531682 0.0026125973287081301 -0.03364565983261044 0.040442342284679751 0.0057178661573189168 -0.018803192416883899 0.0056906192068852893 0.048369825620968677 -0.03425734577371186 -0.03378655825049437 0.0067464386861180951 -0.03696967363647341 0.012954231627147051 0.031976962283938648 -0.037534494547382197 -0.027091083354610572 0.019047590647089465
leaf_weight=26.57625512778759 47.270180106163025 14.614087849855421 69.528571873903275 171.97740173339844 130.84886173903942 298.01918803155422 15.73507449030876 62.252464145421982 67.086057230830193 61.665269076824188 30.522060707211494 84.18268010020256 39.933919727802277 133.13839071989059 50.454434335231781 48.310670509934425 57.581565618515015 64.061816737055779 106.4252974241972 45.840019673109055 19.140239775180817 44.787139177322388 23.21341373026371 85.262987852096558 5.2562151551246634 30.309225708246231 20.392442554235458 31.295165970921516 12.346604526042936 12.558779090642927 26.074695467948914 24.693372368812561 23.018654361367226 15.561956509947775
leaf_count=91 222 59 292 684 463 1163 62 279 278 262 113 372 176 494 234 180 269 250 432 149 94 185 83 352 27 98 66 130 39 54 123 78 78 69
internal_value=0 -0.00543074 -0.00348383 -0.00132101 -0.00428214 -0.00937212 0.00891319 0.00501193 0.00626449 0.0033543 -0.00173915 0.00144662 0.013528 -0.00649513 0.0138042 0.000109422 0.0229428 0.00930523 0.00981855 -0.0226335 0.00962627 0.0189571 0.00521654 0.000368897 0.0104919 -0.020412 -0.0149 -0.00804813 -0.0143845 -0.00858507 0.017457 -0.0243212 -0.0159622 0.000226145
internal_weight=1999.94 1071.21 962.827 854.254 663.098 428.868 191.156 234.23 928.73 663.866 446.048 390.832 264.864 200.224 217.818 117.839 73.3166 167.364 190.608 108.378 217.594 69.1836 148.41 108.476 50.0434 108.573 78.2639 57.8714 62.5381 50.1915 87.74 55.2154 37.6327 79.6238
internal_count=8000 4156 3777 3392 2589 1626 803 963 3844 2705 1767 1576 1139 772 938 472 331 704 804 379 917 306 611 435 212 385 287 221 230 191 385 191 137 319
is_linear=0
shrinkage=0.03


Tree=2
num_leaves=35
num_cat=0
split_feature=23 15 23 15 23 15 23 23 27 23 27 11 14 27 19 28 20 3 15 18 27 12 15 23 27 15 23 15 8 23 4 27 15 14
split_gain=71.2037 37.4373 40.0796 22.8887 24.5857 20.4335 37.1406 18.1294 16.369 15.8629 17.3786 15.2519 14.3224 13.442 13.1244 11.6108 10.5046 9.64651 9.38438 9.25284 9.66148 9.13001 8.81488 10.9637 9.76909 8.26266 9.44913 8.18171 8.13116 8.09014 8.041 10.3647 9.21127 9.56897
threshold=50.495247240720154 95.618775851813055 20.263869396103605 91.47913272342187 33.043249110584604 96.799230210220273 62.147902847326144 37.32427331709146 21.655243083120695 80.592005123582553 20.47678357899601 4.7092888771196906 128.50000000000003 7.9585156412995355 2.5000000000000004 0.00037597601682908666 32.966269093518697 166.56276891843859 94.037290659282149 0.74248527437412959 15.476288014734122 2.5000000000000004 97.965720481911092 37.092098136684335 8.3934819542843808 91.522749926371986 14.126849313982323 99.374222960204534 5.5000000000000009 54.706849691224441 1.5000000000000002 24.039524513952646 99.756522798434204 117.50000000000001
decision_type=2 2 2 2 2 2 2 2 2 2 2 2 2 2 2 2 2 2 2 2 2 2 2 2 2 2 2 2 2 2 2 2 2 2
left_child=1 2 25 4 15 16 30 8 -5 10 12 -9 -8 -6 -11 -4 17 21 -18 29 -21 -2 23 -3 -25 26 -1 -12 -28 -20 32 -32 33 -7
right_child=5 22 3 7 13 6 9 11 -10 14 27 -13 -14 -15 -16 -17 18 -19 19 20 -22 -23 -24 24 -26 -27 28 -29 -30 -31 31 -33 -34 -35
leaf_value=-0.02718305432991136 -0.0085530202854742672 -0.039008569730520561 0.028395175776181874 -0.01273471818372594 -0.0021255756521142912 0.0096117221723446226 0.0079311243313250138 0.0064246622928890674 0.0038446146461162756 0.030140131283137164 0.044092875451680939 -0.0079876309321233567 -0.0052394205554011485 0.029492126035009922 0.0013934000447879294 -0.002670504065851989 0.025139269354062917 0.045091848184137258 0.00090544624761950071 0.0019743066874256185 0.017184865574264054 0.040216038942439469 -0.031837119534028402 -0.043487192038649924 -0.0094342670889758212 -0.033246938354803877 -0.011600761993339247 0.014857533791969279 0.020738168716375887 0.048088504498054609 -0.01822422114200083 0.012948593355448785 -0.018956698716752388 -0.0077202968246343857
leaf_weight=31.431412294507027 8.4269319772720355 14.77659487724304 11.815839961171148 218.12900033593178 14.98552694916725 59.596687361598015 217.19217528402805 206.87806575000286 70.264509186148643 48.011238038539886 12.574015274643896 96.63910748064518 112.18828009068966 55.498176798224449 20.981946870684624 108.83312718570232 35.627628803253174 16.701837927103043 5.4331368356943122 130.76980718970299 53.234442666172981 5.4411340802907935 33.296596363186836 8.0402702093124372 123.39886578917503 30.29962232708931 38.56955274939537 31.117480397224426 8.2498199194669706 9.1974307596683484 72.448637068271637 10.684117779135702 24.336230412125587 54.686748668551445
leaf_count=106 32 46 55 809 59 251 908 857 287 225 63 369 436 260 85 429 163 84 22 530 234 27 109 24 467 98 144 135 37 47 260 46 87 209
internal_value=0 -0.00526983 -0.00274339 -0.000365352 0.00864671 0.00607962 0.00325491 -0.00328749 -0.00867466 0.00828568 0.00581308 0.00181383 0.00342652 0.022698 0.0215138 0.000364244 0.0131295 0.0297438 0.0109123 0.00830764 0.00642134 0.0104547 -0.0177676 -0.0144836 -0.0116258 -0.0198103 -0.0144595 0.0235705 -0.00571089 0.0312199 -0.00674536 -0.0141245 -0.00226278 0.00126662
internal_weight=1999.76 1071.11 891.594 783.043 191.133 928.65 663.818 591.911 288.394 442.065 373.072 303.517 329.38 70.4837 68.9932 120.649 264.832 30.5699 234.262 198.635 184.004 13.8681 179.512 146.216 131.439 108.55 78.2508 43.6915 46.8194 14.6306 221.752 83.1328 138.62 114.283
internal_count=8000 4156 3510 3125 803 3844 2705 2322 1096 1852 1542 1226 1344 319 310 484 1139 143 996 833 764 59 646 537 491 385 287 198 181 69 853 306 547 460
is_linear=0
shrinkage=0.03


Tree=3
num_leaves=35
num_cat=0
split_feature=28 18 21 17 20 10 9 9 28 22 3 21 26 15 21 3 21 10 26 18 18 3 22 0 9 0 17 22 15 26 9 3 9 21
split_gain=8.32918 7.59912 9.07971 8.68167 7.50357 7.41741 7.39445 9.02167 7.07486 9.77887 7.75041 7.68173 10.0309 7.03202 6.79201 9.54296 11.107 6.70959 6.67716 6.57777 7.43325 6.47602 6.47585 12.1772 6.42467 6.09709 5.51925 4.8338 4.73866 4.72753 4.6346 4.42077 10.1715 4.02567
threshold=0.0013592349230198816 3.4219470241380288 18.386146719214022 2065.8908817166312 35.805819296570554 0.57723083613731363 4.378465724600467 4.981559633023493 0.0012632371210948977 67.938680967274394 199.57867399081132 14.6656521380276 0.25062612618669838 91.711430215297113 22.101231402421174 157.10119698888752 14.781438976930483 4.4364151506174085 0.24379636930977797 2.5383303896070117 3.0334260636456074 150.04655781503399 30.827461480314675 83.500000000000014 7.6214777597381174 81.500000000000014 2073.4342587544947 28.475608356390172 95.660630223510523 0.69103875059536013 7.6414595077253429 176.10448028391076 7.5379480281056308 16.811160496650423
decision_type=2 2 2 2 2 2 2 2 2 2 2 2 2 2 2 2 2 2 2 2 2 2 2 2 2 2 2 2 2 2 2 2 2 2
left_child=5 3 30 6 26 33 19 27 10 13 22 -12 -13 29 15 -5 -17 18 -11 -2 -21 -15 23 -7 -9 -24 -4 -8 -6 -10 -3 32 -16 -1
right_child=1 2 4 14 28 8 7 24 9 17 11 12 -14 21 31 16 -18 -19 -20 20 -22 -23 25 -25 -26 -27 -28 -29 -30 -31 -32 -33 -34 -35
leaf_value=0.0038173252124818224 -0.0077170631991075947 0.049279728340566563 0.00072056352586238252 -0.030650850569344957 0.0035200493611340419 0.0046168410041999989 0.0082741928038483434 0.0018104683176025167 0.0035467526482401267 0.010040360397068225 -0.039891137964460428 -0.03426762746170095 0.006302741688370625 -0.011387356914150453 0.0094378317916925854 -0.018349118127747515 0.028264605256539496 0.0036988819184670418 0.057147346800634331 0.049343518347500628 0.0030016833546733148 0.012727201352745684 0.00076298335345018216 0.048690131701649583 -0.0066299123329146281 -0.0088702602782835017 0.043945833942094788 -0.02163071429177674 -0.032153584105109295 -0.029951851163190452 0.0073402300502537297 -0.038756166257592019 -0.035908325725439942 -0.021499899402933793
leaf_weight=7.3066928386688259 7.1155500262975719 6.1928135603666288 7.680821046233179 8.2297209352254885 5.6195981204509717 222.18281498551369 5.2452146708965293 167.84584142267704 6.5542172491550428 4.6844935119152096 7.4806009232997885 7.4816987216472652 18.548385307192802 11.793298676609991 8.0565671622753197 7.8608226031065014 10.313437402248381 7.305505543947219 8.0718758106231672 6.5666040331125242 6.3694486021995544 55.655758425593376 1072.5310594141483 5.6299828737974158 155.43776354193687 62.348191410303116 4.1259877234697342 34.050702795386314 7.1072726547718048 7.8545423746109009 4.4960601776838303 12.900487899780272 9.162994831800459 19.64907369017601
leaf_count=30 27 32 31 27 23 912 22 678 27 20 23 24 77 44 34 28 48 30 43 34 26 239 4310 29 599 237 21 119 23 26 19 40 29 69
internal_value=0 -0.00346961 0.00984752 -0.00455536 -2.75722e-05 0.00108126 -0.00291064 -0.00390715 0.0013664 0.00899476 0.000804045 -0.0133921 -0.00530183 0.00427775 -0.0155338 -0.00410198 0.00779619 0.0277131 0.0407335 0.0146731 0.0273756 0.00840094 0.00115947 0.0057741 -0.00223079 0.000226995 0.0168061 -0.0174654 -0.0161269 -0.0144634 0.0326486 -0.0252641 -0.0144829 -0.0144388
internal_weight=1999.46 474.378 35.2226 439.155 24.5337 1525.08 382.631 362.58 1498.12 101.92 1396.2 33.5107 26.0301 81.8578 56.524 26.404 18.1743 20.0619 12.7564 20.0516 12.9361 67.4491 1362.69 227.813 323.284 1134.88 11.8068 39.2959 12.7269 14.4088 10.6889 30.12 17.2196 26.9558
internal_count=8000 1860 149 1711 98 6140 1505 1418 6041 429 5612 124 101 336 206 103 76 93 63 87 60 283 5488 941 1277 4547 52 141 46 53 51 103 63 99
is_linear=0
shrinkage=0.03


Tree=4
num_leaves=35
num_cat=0
split_feature=23 15 23 15 9 23 23 23 15 23 9 23 9 9 17 9 9 9 27 3 18 15 9 15 15 21 23 23 15 9 23 15 9 15
split_gain=67.0021 35.4662 34.5931 25.4915 33.4905 30.5065 23.1521 19.3932 19.2447 35.9135 33.6832 25.7601 18.6675 17.7977 14.5656 13.5948 13.2657 12.8168 12.703 12.1298 11.2394 11.6498 10.0892 8.00874 7.97532 8.79972 8.37715 7.78914 7.71437 9.92377 15.4498 7.43739 7.24709 7.15295
threshold=50.495247240720154 96.488297960139406 20.263869396103605 91.47913272342187 6.4003616501608853 37.32427331709146 32.812728106940462 36.850630632406784 96.799230210220273 71.634115218996996 8.7167045490636621 61.278439646236755 7.4433051957202183 5.2108866331964991 2481.5975799980715 7.249673633015151 4.4713270289117668 8.8711774491309132 7.9585156412995355 192.74597037670279 0.74248527437412959 94.07390505778848 5.0516021581271469 97.73205908060369 98.627683361859241 28.131285200621125 47.974273558437709 79.149649238345418 91.618613425184193 5.8983678950068716 13.195514424410261 98.98858484352246 9.5264177419069522 100.8251543990603
decision_type=2 2 2 2 2 2 2 2 2 2 2 2 2 2 2 2 2 2 2 2 2 2 2 2 2 2 2 2 2 2 2 2 2 2
left_child=1 2 28 6 5 -5 15 -6 12 10 11 13 -2 -10 17 -4 -13 27 -8 20 32 -22 24 -12 25 26 -3 -11 29 30 -1 -19 -14 -16
right_child=8 22 3 4 7 -7 18 -9 9 14 23 16 19 -15 33 -17 -18 31 -20 -21 21 -23 -24 -25 -26 -27 -28 -29 -30 -31 -32 -33 -34 -35
leaf_value=-0.027708677564411678 0.029148583737246242 -0.021868782911365368 0.008648458872769103 -0.0039763506886756755 -0.02274923190614864 0.015271233345267815 -0.0018913118390296497 -0.0063242952280798265 0.0064163169093586431 0.010684067035211285 -0.012890218512494948 0.046177554769634269 0.047225006950539161 -0.012472091621343625 0.030933560221681176 -0.012031735102965574 0.0075312077285704642 0.011839341142361926 0.02814743621134555 0.028384429916504181 0.020388169730445153 0.00033588942070648519 -0.032158309973433219 -0.036403602340328703 -0.034878859952700222 0.014452447597905645 0.012469502935091333 0.030537800812627795 -0.033039669520217071 -0.032448409713753394 0.0034700535487424047 -0.007029997864904442 0.00020909387389064318 -0.0067329503727225444
leaf_weight=22.436385810375214 50.612548068165779 30.681881338357925 69.520950958132744 206.00957831740379 87.562764644622803 115.27009887993336 15.733620420098303 254.1490374058485 67.074541479349136 61.657389968633652 30.519540280103683 8.2540271580219251 9.1914947777986509 133.11680360138416 45.745398998260498 48.307176113128662 182.31714223325253 29.986659914255142 57.510904744267464 25.12202961742878 31.857436180114746 143.29425501823425 45.806703731417656 24.681896910071373 12.328831166028975 11.805593177676199 7.6837326139211646 26.056417912244797 27.651754513382912 20.377440601587296 38.026011452078819 49.625117257237434 4.6821722090244284 4.6802465021610251
leaf_count=75 237 107 292 804 304 501 62 980 278 262 113 42 47 494 216 180 762 128 269 117 143 576 149 78 39 51 33 123 89 66 155 191 19 18
internal_value=0 -0.00511136 -0.00327037 -0.0012339 -0.00402253 0.00291592 0.00840492 -0.0105615 0.00589928 0.00315751 -0.00170766 0.00138089 0.0127423 -0.00611346 0.0131416 0.000113136 0.00928317 0.00880953 0.0216256 0.00881315 0.00615311 0.00403641 -0.0213814 -0.0236054 -0.0133098 -0.00777295 -0.014807 0.0167062 -0.0192149 -0.0143421 -0.00805405 1.40292e-05 0.0320126 0.0273062
internal_weight=1999.34 1070.86 962.556 854.064 662.991 321.28 191.073 341.712 928.475 663.715 445.964 390.763 264.76 200.191 217.751 117.828 190.571 167.326 73.2445 214.147 189.025 175.152 108.307 55.2014 62.5 50.1712 38.3656 87.7138 108.492 80.8398 60.4624 79.6118 13.8737 50.4256
internal_count=8000 4156 3777 3392 2589 1305 803 1284 3844 2705 1767 1576 1139 772 938 472 804 704 331 902 785 719 379 191 230 191 140 385 385 296 230 319 66 234
is_linear=0
shrinkage=0.03


Tree=5
num_leaves=27
num_cat=0
split_feature=17 18 18 9 14 27 25 27 8 14 18 14 21 20 3 25 19 21 27 1 25 7 9 0 27 17
split_gain=7.40626 6.46703 11.7703 8.94746 13.8621 8.00112 11.1506 8.30544 17.6857 8.97794 7.98171 8.32141 7.89537 7.7545 7.15841 7.10439 7.56651 5.96956 5.48456 5.24314 5.57613 5.08924 4.92527 4.68575 2.76465 2.72531
threshold=1216.6066232875974 2.9733784091941793 3.4219470241380288 9.5486657137687345 148.50000000000003 6.4917136506123763 61.357477417764485 12.755462958038509 3.5000000000000004 91.500000000000014 2.9095770476111524 149.50000000000003 32.452387370211561 33.417447610407443 164.47468399147377 30.087030606937766 1.5000000000000002 10.525349542919221 19.602499421478669 1.5000000000000002 24.658280588486484 1.5000000000000002 6.9129079054895604 67.500000000000014 25.781470293312875 2073.4342587544947
decision_type=2 2 2 2 2 2 2 2 2 2 2 2 2 2 2 2 2 2 2 2 2 2 2 2 2 2
left_child=22 5 3 17 14 6 15 8 13 -10 12 -12 -9 -7 -5 23 -17 -3 19 20 -4 -19 -1 -2 -20 -21
right_child=1 2 18 4 -6 7 -8 10 9 -11 11 -13 -14 -15 -16 16 -18 21 24 25 -22 -23 -24 -25 -26 -27
leaf_value=0.0026329381662865336 -0.0065463663445781643 -0.034581395214590159 -0.0020114866120830564 -0.022339192539315583 0.055873372388076187 0.0094785340340208264 -0.048887775994627868 -2.9219444495849967e-05 0.0063593649669308463 0.019221532569789805 0.03339688552843826 -0.0019328098175644753 -0.0089657000850687906 -0.0025610441532090272 0.015622574187404996 0.021861568042795411 -0.0066315871912967853 -0.0034630757988688456 0.046932018070340337 -0.025799794030148742 0.026640489297091296 -0.011836970528678223 0.038745104236527425 -0.029689080718319098 0.0097944251406462124 0.0025891729826303493
leaf_weight=7.1152126938104612 24.151725724339485 6.9157495051622382 10.854518830776216 7.4818820506334367 4.8796632140874854 58.248669490218163 5.6069735288619986 861.47736153006554 160.70077611505985 71.759193554520607 12.374372109770777 10.858055740594862 99.205530196428299 271.87272414565086 10.489803835749624 13.307736679911612 21.531591162085533 183.83326530456543 4.8733238279819471 5.6082405447959882 12.73856934905052 104.05500593781471 7.1281773298978806 12.342334628105162 3.7462398707866669 5.6140272319316864
leaf_count=29 93 22 43 26 26 246 16 3446 666 319 59 43 377 1073 46 60 83 720 25 19 59 389 35 41 16 23
internal_value=0 -0.000153453 -0.00378597 -0.00580215 0.0121127 0.000651176 -0.0087696 0.00112483 0.00403285 0.0103687 -0.000532302 0.0167534 -0.000959969 -0.000414089 0 -0.00540447 0.0041435 -0.0072184 0.0107805 0.00518789 0.0133002 -0.0065167 0.0214071 -0.0146559 0.0320597 -0.011276
internal_weight=1998.77 1984.53 361.09 317.655 22.8513 1623.44 76.9404 1546.5 562.581 232.46 983.915 23.2324 960.683 330.121 17.9717 71.3334 34.8393 294.804 43.4349 34.8154 23.5931 287.888 14.2434 36.4941 8.61956 11.2223
internal_count=8000 7936 1414 1229 98 6522 293 6229 2304 985 3925 102 3823 1319 72 277 143 1131 185 144 102 1109 64 134 41 42
is_linear=0
shrinkage=0.03


Tree=6
num_leaves=35
num_cat=0
split_feature=23 15 23 15 9 23 23 23 15 9 9 23 6 9 23 9 9 15 23 9 23 15 23 15 9 6 15 23 6 15 28 9 24 20
split_gain=62.8314 34.0599 35.5777 20.126 29.3737 41.1157 21.7983 18.2345 34.3452 31.1808 19.8943 19.3303 16.5069 15.9657 14.1648 16.4229 13.8898 15.9357 21.1867 13.1311 13.0317 12.6788 20.593 12.4754 11.4064 11.1732 9.14374 13.7743 15.9161 8.97269 9.09045 8.85151 7.96499 13.0674
threshold=50.495247240720154 95.618775851813055 20.263869396103605 91.47913272342187 7.3054403048065675 37.32427331709146 33.043249110584604 69.947137907974152 97.38687566908375 6.3340289864104546 7.4433051957202183 62.147902847326144 1.0000000180025095e-35 8.8711774491309132 61.12444769896382 8.7167045490636621 5.44021261791766 97.965720481911092 41.382163379206027 7.249673633015151 39.324887115868641 95.99042484130058 57.523642546522765 99.298470473400343 9.5098867832569081 1.0000000180025095e-35 96.956191650975271 80.592005123582553 1.0000000180025095e-35 95.284555407335432 0.0012814459788424314 4.6784133231551506 1.0000000180025095e-35 35.377270389130011
decision_type=2 2 2 2 2 2 2 2 2 2 2 2 2 2 2 2 2 2 2 2 2 2 2 2 2 2 2 2 2 2 2 2 2 2
left_child=1 2 -1 6 5 -5 19 8 10 11 29 12 -10 32 -11 -16 17 18 -3 -4 -6 25 -23 -13 -8 -12 -15 28 -28 -2 -31 -20 33 -9
right_child=7 16 3 4 20 -7 24 13 9 14 21 23 -14 26 15 -17 -18 -19 31 -21 -22 22 -24 -25 -26 -27 27 -29 -30 30 -32 -33 -34 -35
leaf_value=-0.018631530295304618 0.051076510313321395 -0.023351461103393839 0.0088005859648126444 -0.0051130300143083663 -0.022832670181678959 0.015894377234032964 0.027908542832533911 0.026926112200853586 -0.0131962823830703 -0.028090720362985901 0.0044073972103989495 0.040970315959767176 0.0083298157962332434 0.031390989381667116 -0.0013372566260686149 -0.029558329668549415 -0.027909296212986844 -0.029027508654161937 0.022598179436928316 -0.011221566870329339 -0.0068502138070022523 -0.028022396799712249 0.0049572054769486179 0.0099652814353181161 -0.00059360654767953117 0.021318524364424538 -0.021203788369101272 0.015094650077352615 0.0073436201370930118 0.026690725772636661 0.0035775971003505569 -0.0021613653256821351 0.027364884529745333 0.0025430268009409987
leaf_weight=108.40096239745617 9.1852136552333814 30.674817815423012 70.077164396643639 243.04273392260075 66.393735557794571 127.6315969824791 54.463887214660645 34.293791398406029 62.149569347500801 44.146680489182472 90.634728312492371 16.125260069966316 65.574206635355949 10.123493283987044 82.785864472389221 23.923027589917183 65.619187846779823 30.251156687736511 21.552596494555473 50.547346919775009 154.68396845459938 22.260372161865234 69.869986996054649 44.778444528579712 15.89389683306217 58.65120741724968 33.679344013333321 43.269711256027222 35.965201377868652 47.590324953198433 23.581763878464699 31.259891748428345 61.663157880306244 47.934071704745293
leaf_count=385 48 106 295 941 230 557 255 159 230 148 374 80 274 48 330 79 220 100 97 189 594 75 288 190 64 264 119 189 150 220 97 123 286 196
internal_value=0 -0.00495011 -0.00253974 -0.000299327 -0.00303978 0.00210879 0.00815479 0.00571408 0.00302872 -0.00361384 0.0100534 0.00449182 -0.002102 0.0123368 -0.0137813 -0.00776371 -0.0168764 -0.0104207 -0.0035537 0.000356016 -0.0116935 0.00570708 -0.00298972 0.0183798 0.0214014 0.0111112 0.00432853 0.00179794 -0.00639688 0.0229899 0.0191481 0.00787688 0.0191273 0.0128256
internal_weight=1998.68 1070.49 891.135 782.734 591.752 370.674 190.982 928.185 661.257 339.483 321.774 188.627 127.724 266.929 150.856 106.709 179.358 113.738 83.4873 120.625 221.078 241.416 92.1304 60.9037 70.3578 149.286 123.038 112.914 69.6445 80.3573 71.1721 52.8125 143.891 82.2279
internal_count=8000 4156 3510 3125 2322 1498 803 3844 2697 1331 1366 774 504 1147 557 409 646 426 326 484 824 1001 363 270 319 638 506 458 269 365 317 220 641 355
is_linear=0
shrinkage=0.03


Tree=7
num_leaves=35
num_cat=0
split_feature=23 15 23 15 23 15 23 23 15 23 27 25 16 27 20 15 18 28 0 15 10 26 24 26 23 14 15 23 8 2 25 0 22 12
split_gain=59.2073 30.6464 30.8872 22.1696 20.5844 18.2888 35.0704 16.1872 21.7705 14.5516 14.801 13.1887 13.0826 11.7072 11.4393 10.8611 10.9687 10.474 10.2151 10.1665 8.684 11.7269 9.54941 8.38943 8.26923 7.46789 7.34657 8.53793 7.55367 6.78683 8.89275 7.3552 6.78308 6.59994
threshold=50.91165428392641 96.488297960139406 20.263869396103605 91.47913272342187 32.812728106940462 97.256884973026146 61.278439646236755 37.32427331709146 94.119572016867565 83.600005847292195 20.47678357899601 40.792611046156658 1.0000000180025095e-35 7.9585156412995355 32.966269093518697 94.037290659282149 0.72758582030809438 0.00037597601682908666 60.500000000000007 100.44556874612836 4.2786288169470739 0.7472977932323942 1.0000000180025095e-35 0.83392294938345735 69.55368232856965 139.50000000000003 91.522749926371986 14.126849313982323 5.5000000000000009 74.379513515163609 18.341219269934218 53.500000000000007 59.121111705164601 2.5000000000000004
decision_type=2 2 2 2 2 2 2 2 2 2 2 2 2 2 2 2 2 2 2 2 2 2 2 2 2 2 2 2 2 2 2 2 2 2
left_child=1 2 26 4 17 14 20 8 -5 10 12 -9 -8 -6 29 25 32 -4 -18 -11 21 22 -7 -22 -12 -16 27 -1 -29 30 -2 -32 -17 -27
right_child=5 -3 3 7 13 6 9 11 -10 19 24 -13 -14 -15 15 16 18 -19 -20 -21 23 -23 -24 -25 -26 33 -28 28 -30 -31 31 -33 -34 -35
leaf_value=-0.025145917937615093 0.041397069158032068 -0.019461036540582736 0.026933438935485884 -0.0043007412514410141 -0.002161096541303253 -0.018006169748212741 0.0095375022925556132 -0.0026346731346251645 -0.023348775388144744 0.038339348266571434 0.013807236782488085 0.010613238049413443 -0.0022357226999975581 0.026673065630474661 0.036143160654896471 0.015536790433056745 0.0011788735995589552 -0.0028304563588784411 0.015117552621006898 0.0076806136002719504 -0.034091357165388511 0.026405504517278647 -0.00029008022957735578 -0.007989340648575002 0.044073649375309019 0.029580994555788331 -0.03078056906155156 -0.01041358302817887 0.020773636445476543 0.041298138322219527 -0.026235957699732377 0.022187841333147829 0.054891650946908239 -0.015495456938804879
leaf_weight=31.353646218776703 6.367169842123988 113.7466362118721 11.621429696679114 228.35206761956215 15.732436656951903 46.036150991916656 155.61220271885395 284.62875762581825 71.085637360811234 21.536886736750603 36.324327632784843 88.432924449443817 185.33477364480495 57.364577025175095 21.354511752724648 12.727185621857645 159.34050920605659 106.18101593852043 67.803574651479721 18.898988962173462 20.932825312018394 9.7501655668020231 68.907421186566353 25.270645707845688 10.869013249874113 5.2419005036354047 30.193252995610237 38.533774122595787 8.2478792965412122 17.224768310785294 5.6113445162773115 5.2425565868616104 6.1819058358669272 5.9828191548585892
leaf_count=106 32 401 54 886 62 165 658 1122 246 106 158 375 736 269 104 56 645 418 296 80 67 45 274 96 55 25 98 144 37 86 19 24 33 22
internal_value=0 -0.0047318 -0.00299784 -0.00109408 0.00791356 0.00563457 0.00255088 -0.00366155 -0.00885528 0.00714003 0.00532885 0.000493626 0.00312257 0.0203964 0.0115146 0.00945193 0.0072498 9.5633e-05 0.00537567 0.024266 -0.00891764 -0.00472276 -0.00745663 -0.0200403 0.021061 0.0257547 -0.0180859 -0.0130377 -0.00472236 0.0278753 0.0137853 -0.00232566 0.0291568 0.00517923
internal_weight=1998.03 1085.47 971.727 863.399 190.899 912.552 599.473 672.499 299.438 428.576 388.14 373.062 340.947 73.097 313.078 278.632 246.053 117.802 227.144 40.4359 170.897 124.694 114.944 46.2035 47.1933 32.5792 108.329 78.1353 46.7817 34.4458 17.2211 10.8539 18.9091 11.2247
internal_count=8000 4218 3817 3432 803 3782 2440 2629 1132 1793 1607 1497 1394 331 1342 1181 1030 472 941 186 647 484 439 163 213 151 385 287 181 161 75 43 89 47
is_linear=0
shrinkage=0.03


Tree=8
num_leaves=35
num_cat=0
split_feature=23 15 23 9 15 23 23 23 15 23 15 9 9 23 6 9 15 9 15 23 23 15 23 9 19 6 20 19 15 15 23 6 14 27
split_gain=55.8216 30.7459 31.6484 20.4575 25.2371 26.0159 24.8098 20.6776 36.7271 16.7556 30.7172 29.434 18.914 17.4618 15.632 15.4233 14.0705 13.3937 14.8545 19.8429 12.9022 13.6447 12.5987 15.5204 12.5683 12.4713 12.1065 12.6388 11.8128 11.636 19.2873 10.5725 9.69626 9.59264
threshold=50.495247240720154 95.618775851813055 20.263869396103605 5.9956883680373032 91.47913272342187 33.043249110584604 36.850630632406784 38.480774348604619 94.182008811988155 69.947137907974152 97.38687566908375 6.3340289864104546 7.4433051957202183 62.147902847326144 1.0000000180025095e-35 7.8656196055708536 99.420601025267374 5.44021261791766 97.965720481911092 41.382163379206027 80.592005123582553 96.956191650975271 61.12444769896382 8.7167045490636621 1.5000000000000002 1.0000000180025095e-35 34.2074303633079 1.0000000180025095e-35 99.298470473400343 95.99042484130058 57.523642546522765 1.0000000180025095e-35 165.50000000000003 27.700681295422239
decision_type=2 2 2 2 2 2 2 2 2 2 2 2 2 2 2 2 2 2 2 2 2 2 2 2 2 2 2 2 2 2 2 2 2 2
left_child=1 2 -1 7 5 -5 -6 8 -4 10 12 13 -2 14 -12 16 -11 18 19 -3 21 -17 -13 -24 32 -23 -18 -28 -15 31 -31 -14 -22 -9
right_child=9 17 3 4 6 -7 -8 33 -10 15 11 22 29 28 -16 20 26 -19 -20 -21 24 25 23 -25 -26 -27 27 -29 -30 30 -32 -33 -34 -35
leaf_value=-0.017567331467271057 0.022081862502218084 -0.022215778129602456 0.010761301319026749 -0.0041388480041957927 -0.019353084093805196 0.020099946046593764 -0.0026352563234297191 0.031763521637577764 -0.017770295379255271 0.048552034263081759 -0.012656884800897484 -0.02686171712643718 0.0038818901631929108 0.039619050895480047 0.0082939526090062554 0.032957667234311303 0.040594147148307939 -0.026844188543885983 -0.02765319016179842 0.0080219132748879391 0.042152246500886802 -0.010977838740495356 -0.001421467801272812 -0.028869449752235491 0.0067771370213937565 0.0085348998507522554 0.040802545139358881 0.00061970818033288974 0.009426068830751878 -0.027337425906372659 0.0045812996709036413 0.020337030284813009 -0.0065418492733017785 -0.011177102737786
leaf_weight=108.20837105810642 80.2586330473423 30.636578232049942 148.58348613977432 91.368722796440125 115.89271795749664 70.000553354620934 259.9484346061945 35.982441693544388 55.567147850990295 15.744902193546293 62.132858648896217 44.091963604092598 90.577831774950027 16.095295578241348 65.568018227815628 11.236963555216787 14.044137984514235 65.526714876294136 30.175058394670486 52.797124549746513 21.892220243811611 59.697883620858192 82.781043484807014 23.902845606207848 37.034118056297302 57.68611241877079 8.6182184815406782 36.677643105387688 44.762670367956161 22.252944961190224 69.852503225207329 58.586857676506042 4.1093759238719931 5.0516107976436606
leaf_count=385 365 106 629 357 409 318 1023 171 199 81 230 148 374 80 274 54 70 220 100 220 110 225 330 79 156 243 43 149 190 75 288 264 16 19
internal_value=8.65647e-07 -0.00466596 -0.00237542 -0.000262693 -0.00354714 0.00635045 -0.0078138 0.00690625 0.00295622 0.00538909 0.00281388 -0.00346824 0.00946058 0.00440754 -0.00185662 0.0117399 0.0232855 -0.016005 -0.00966435 -0.0030361 0.00716589 0.00165686 -0.0133501 -0.00766992 0.0182711 -0.00133944 0.0163401 0.00854274 0.0176132 0.00522245 -0.00310788 0.0104037 0.0342363 0.0263031
internal_weight=1997.34 1069.74 890.603 782.395 537.21 161.369 375.841 245.185 204.151 927.605 660.863 339.335 321.529 188.559 127.701 266.742 75.0849 179.135 113.609 83.4337 191.657 128.621 150.776 106.684 63.0357 117.384 59.34 45.2959 60.858 241.27 92.1054 149.165 26.0016 41.0341
internal_count=8000 4156 3510 3125 2107 675 1432 1018 828 3844 2697 1331 1366 774 504 1147 343 646 426 326 804 522 557 409 282 468 262 192 270 1001 363 638 126 190
is_linear=0
shrinkage=0.03


Tree=9
num_leaves=35
num_cat=0
split_feature=28 21 20 26 20 14 10 28 3 27 3 21 11 21 17 7 9 3 27 27 0 10 10 25 10 9 9 27 9 21 3 27 18 25
split_gain=7.5458 7.05459 8.16291 7.54209 7.68045 7.36009 6.77918 6.4513 8.40165 11.044 7.24751 6.82927 12.6411 6.35193 7.75853 6.17932 6.11055 9.59094 7.1528 6.05876 5.79903 9.65098 7.56673 5.79288 5.47526 5.42546 5.0404 9.20658 4.98029 5.01556 4.70044 4.5989 1.86061 1.62066
threshold=0.0013592349230198816 29.27454381546664 32.248640276173646 0.98768479356095673 32.354489731622401 176.50000000000003 0.57723083613731363 0.0012632371210948977 145.66360392343049 8.469504526032166 199.57867399081132 14.6656521380276 4.405359834206469 31.129690358537836 1333.8474898861471 1.0000000180025095e-35 9.3975791164450193 192.33319435795718 12.822406226625928 18.367550512387265 65.500000000000014 6.4340264412691619 2.456266219962743 34.104585734855981 3.4629312290600098 9.3069499866116967 9.0565230654897082 22.026458404792198 6.3762784756877542 30.235556304714788 162.3366647465007 7.7276995589935566 1.6922073119710748 36.349051639236599
decision_type=2 2 2 2 2 2 2 2 2 2 2 2 2 2 2 2 2 2 2 2 2 2 2 2 2 2 2 2 2 2 2 2 2 2
left_child=6 2 19 4 -4 -6 15 10 24 31 16 -12 -13 14 -3 -1 18 -18 -8 30 21 22 -15 32 -9 -11 27 -22 29 -16 -2 -10 -17 -30
right_child=1 13 3 -5 5 -7 7 8 9 25 11 12 -14 20 28 23 17 -19 -20 -21 26 -23 -24 -25 -26 -27 -28 -29 33 -31 -32 -33 -34 -35
leaf_value=0.0068497964918841775 0.011013789495598489 0.0081366156568476646 -0.036259680062514794 -0.034952208150718957 7.3515834428357983e-05 -0.023026926969842626 0.0047800572501748512 0.0085787779912529401 0.00098905393834418744 0.01343085398446007 -0.038007614242097434 0.013903357832586637 -0.027600105439329916 0.0016654207003165649 0.0070655466640383614 -0.046334366926241245 -0.0074386571158946077 0.018614547567443698 2.1407701562218086e-05 -0.0088407697983836509 0.037831946256441228 0.024326797582236676 -0.020911784413737904 0.0015315441140277867 -0.033036236381499301 0.041618772837111795 -0.017873284605536447 -0.013080912700295752 -0.040271794892061258 -0.031040147156727496 0.055674033421058207 -0.033064228372293523 -0.02017136312802599 -0.017850634931297168
leaf_weight=8.4120356440544146 4.679157078266142 7.1115882396697989 5.4101905375719062 5.9747620373964301 315.68852470815182 12.701190784573553 454.19968047738075 4.4896987080574018 8.4142626672983152 69.794724941253662 7.4610230624675742 13.849476516246797 12.14281879365444 20.014864042401314 6.7231934517621976 6.5371020585298556 126.4054758399725 13.840112611651419 766.18294176459312 3.7379722446203223 8.6180756390094775 6.7410131841897956 37.18934565782547 5.4203013479709616 6.5352624207735062 6.9090586751699439 3.9260637611150733 4.6653514057397834 14.941169351339342 5.2280446588993073 4.6878883838653564 5.6002776175737372 6.5422088801860809 5.5969576090574256
leaf_count=35 20 30 17 19 1264 44 1871 19 34 302 23 60 41 81 28 19 489 62 3066 14 42 31 131 22 21 35 14 17 46 17 25 18 23 20
internal_value=1.44459e-06 -0.0033018 -0.00113868 -0.00205632 -0.00142897 -0.000815156 0.00103313 0.0013061 0.00859715 0.0116445 0.00076852 -0.0129706 -0.00531943 -0.00956106 -0.0194297 -0.0138155 0.00111259 -0.00480203 0.00179788 0.0218753 -0.00463579 -0.00884492 -0.0129296 -0.0235059 -0.0157039 0.0161495 0.0105813 0.0195768 -0.0256601 -0.00934647 0.0346885 -0.0124705 -0.0342005 -0.0346821
internal_weight=1996.37 473.635 352.88 339.775 333.8 328.39 1522.74 1495.82 101.743 90.7183 1394.08 33.4533 25.9923 120.756 39.601 26.9116 1360.63 140.246 1220.38 13.105 81.1547 63.9452 57.2042 18.4996 11.025 76.7038 17.2095 13.2834 32.4894 11.9512 9.36705 14.0145 13.0793 20.5381
internal_count=8000 1860 1403 1344 1325 1308 6140 6041 429 389 5612 124 101 457 141 99 5488 551 4937 59 316 243 212 64 40 337 73 59 111 45 45 52 42 66
is_linear=0
shrinkage=0.03


Tree=10
num_leaves=35
num_cat=0
split_feature=23 15 23 15 9 23 23 27 23 15 23 9 9 23 25 9 24 27 9 15 23 9 11 2 15 24 1 18 15 7 23 9 15 23
split_gain=52.7656 27.7868 27.8307 20.3239 24.8002 33.1984 19.7417 16.6159 16.5586 16.4268 31.2706 21.1705 19.4086 31.9284 17.6822 16.6511 11.9259 11.0566 10.7776 10.6146 16.8617 10.4968 10.0815 9.17317 9.14172 12.9621 11.1061 8.77979 8.24858 8.07706 7.93917 7.48065 6.73829 9.6673
threshold=50.91165428392641 96.488297960139406 17.167124302560506 91.47913272342187 6.4208020730555084 37.32427331709146 32.812728106940462 19.053456796146161 36.850630632406784 97.256884973026146 61.278439646236755 6.1892904749757243 8.7167045490636621 77.620105650039037 13.168450251136028 7.4433051957202183 1.0000000180025095e-35 7.9585156412995355 4.4713270289117668 94.037290659282149 63.204258994855344 5.0516021581271469 5.5682698145580343 58.453870692208334 98.272606898917928 1.0000000180025095e-35 1.0000000180025095e-35 3.3637052745313851 95.825494298769499 1.5000000000000002 68.43325912506711 9.1107827171318103 98.862161454876642 47.974273558437709
decision_type=2 2 2 2 2 2 2 2 2 2 2 2 2 2 2 2 2 2 2 2 2 2 2 2 2 2 2 2 2 2 2 2 2 2
left_child=1 2 -1 6 5 -5 7 -4 -6 15 11 24 14 30 16 22 -12 -8 -16 29 27 32 28 -22 26 -26 -11 -21 -2 -17 -14 -31 33 -3
right_child=9 21 3 4 8 -7 17 -9 -10 10 12 -13 13 -15 18 19 -18 -19 -20 20 23 -23 -24 -25 25 -27 -28 -29 -30 31 -32 -33 -34 -35
leaf_value=-0.021725096719817781 0.048614840256457854 -0.013135822301119097 -0.0057077270990579607 -0.0050165686092569209 -0.021024632006947031 0.014659496020998393 -0.0026630940253046182 0.01784468445774259 -0.0058121669296678363 -0.010740693386224491 -0.031132237016633479 -0.023790126392153048 -0.032670526910714814 0.011901775906600676 0.048473240293784511 0.036424109493194801 0.015067262318563757 0.02536364066735813 0.012434072779582465 -0.002598999732723802 9.3216592550460271e-06 -0.028964990870900362 -0.0058587002389551635 0.024198454922745641 -0.019891771672705606 0.0033928543566787497 0.028509689568591692 0.037571185199562589 0.02174435789875323 0.036491395778219221 -0.0099271422897184974 -0.0065539074424010623 -0.032328596156372132 0.016198961603568894
leaf_weight=65.187656417489052 14.375294357538221 40.705491453409195 108.92388594150543 223.17281697690487 86.251894786953926 117.59294302761555 15.731200918555258 35.600074127316475 261.34387232363224 9.918234050273897 13.833788186311724 54.695273756980896 19.013860359787941 73.87589892745018 7.6601068079471579 18.137988358736038 7.4864066541194907 57.165121495723724 250.96728426218033 138.26659451425076 20.765616372227669 49.325836330652237 8.4051420539617521 47.380342096090317 35.349931508302689 53.56474843621254 17.247657895088196 4.8673076182603827 44.306232035160065 5.0490337461233166 55.37702451646328 11.199619501829146 10.391101002693174 13.099862456321715
leaf_count=225 75 149 421 862 300 512 62 157 1009 37 46 187 61 319 40 89 33 269 1085 549 84 162 33 217 125 218 80 24 202 25 209 44 33 57
internal_value=8.15471e-07 -0.00446793 -0.00281674 -0.00144482 -0.00397573 0.00176035 0.00653686 6.90395e-05 -0.00961414 0.00532265 0.00239854 -0.00843365 0.00673445 -0.00200592 0.0113831 0.0108987 -0.0146416 0.0192426 0.0135613 0.00723504 0.0046722 -0.0185082 0.0241641 0.0169369 -0.00111785 -0.00582098 0.0139864 -0.00114062 0.0285715 0.0226902 -0.0158927 0.00673809 -0.0103155 -0.00584911
internal_weight=1996.24 1084.49 970.969 905.782 688.362 340.766 217.42 144.524 347.596 911.743 598.99 170.776 428.214 148.267 279.948 312.753 21.3202 72.8963 258.627 245.667 211.28 113.522 67.0867 68.146 116.081 88.9147 27.1659 143.134 58.6815 34.3866 74.3909 16.2487 64.1965 53.8054
internal_count=8000 4218 3817 3592 2683 1374 909 578 1309 3782 2440 647 1793 589 1204 1342 79 331 1125 1032 874 401 310 301 460 343 117 573 277 158 270 69 239 206
is_linear=0
shrinkage=0.03


Tree=11
num_leaves=35
num_cat=0
split_feature=23 15 23 27 15 23 9 23 15 9 23 9 9 9 9 9 15 23 27 3 7 25 23 19 18 9 23 1 9 0 22 28 15 9
split_gain=49.7374 28.3118 28.5666 19.4283 18.0083 17.7562 15.9959 15.5983 28.3663 28.5428 19.0729 16.0413 15.9435 13.6603 12.8918 12.4232 13.6296 18.8176 10.9469 10.5658 10.5134 10.2061 9.06464 13.0362 9.06456 9.04101 8.79239 7.48447 7.3884 7.18121 10.0275 8.29626 7.02185 9.97919
threshold=50.495247240720154 95.618775851813055 20.263869396103605 9.4514609271493573 91.47913272342187 32.812728106940462 5.7858938609407913 71.634115218996996 96.799230210220273 8.7167045490636621 62.147902847326144 7.3851530996468826 5.2108866331964991 5.2383524729247837 9.6460193453302949 5.44021261791766 97.965720481911092 37.092098136684335 17.495637278015554 192.74597037670279 1.0000000180025095e-35 10.511921119208026 80.592005123582553 2.5000000000000004 0.74248527437412959 8.1722810638425543 33.25350685118125 1.5000000000000002 7.9165336803177917 41.500000000000007 35.572289869206173 0.0011667715920729495 91.522749926371986 5.8569928421451785
decision_type=2 2 2 2 2 2 2 2 2 2 2 2 2 2 2 2 2 2 2 2 2 2 2 2 2 2 2 2 2 2 2 2 2 2
left_child=1 2 32 14 5 -5 -6 8 11 10 13 29 -12 -10 26 16 17 -3 21 24 -19 -9 25 -24 -13 -23 -4 -21 -20 31 -31 -2 33 -1
right_child=7 15 3 4 6 -7 -8 18 9 -11 12 19 -14 -15 -16 -17 -18 20 28 27 -22 22 23 -25 -26 -27 -28 -29 -30 30 -32 -33 -34 -35
leaf_value=-0.0049518154364034655 0.03049536620647908 -0.034389864112247558 -0.017478234380069665 0.0036431289796404437 0.0063040933475866905 0.025869973478870722 -0.0049284373534894512 -0.026004773799325802 0.0056594014760230999 -0.02187928865455506 0.031491540970025912 0.027522457795512625 0.0048735795780634377 -0.010294020042873499 -0.035343841011251036 -0.025753207326988332 -0.026455807282819849 0.019550472143214533 0.042161251396245616 0.036032611438103303 -0.0048715509212416061 0.017879614315775831 0.029909390355654302 0 0.0027953655212140712 0.00075943677446003121 -0.0014309658707405083 0 0.0074251938267425191 0.0021434521046230209 0.047648381698433322 -0.0064336884048923765 -0.029087670015303126 -0.029135794512506533
leaf_weight=56.543638780713081 11.355527400970461 13.966011509299276 45.79682557284832 92.884091943502426 184.97158381342888 50.158783063292503 296.7077411711216 6.729278787970542 72.656563803553581 55.040256485342979 23.35686032474041 14.371154323220251 152.89549051225185 141.30869334936142 15.698618248105047 65.365639597177505 30.065244689583778 23.959595590829849 16.809932917356495 17.574695348739628 45.43983967602253 40.966219380497932 41.423317924141884 19.447291225194931 173.39574985206127 87.77592708170414 95.578809127211571 6.9130185991525641 8.981370657682417 5.9613194763660458 19.743559017777443 9.88240137696266 30.050445318222046 21.395259484648705
leaf_count=217 55 44 164 380 766 238 1148 23 300 191 112 68 635 529 50 220 100 106 85 86 176 183 198 79 712 355 379 28 38 25 103 39 98 70
internal_value=9.8456e-07 -0.00440638 -0.00220797 -0.000200733 0.00216338 0.0115042 -0.000601711 0.00509007 0.00289142 -0.00169044 0.00115158 0.0107807 0.00846668 -0.00484845 -0.00963233 -0.0152986 -0.00918646 -0.00283816 0.0120268 0.00721786 0.0035057 0.00954826 0.0108677 0.020435 0.0047471 0.00627295 -0.006689 0.0257282 0.0304461 0.0266638 0.0374248 0.013132 -0.0166569 -0.011725
internal_weight=1995.17 1068.58 889.786 781.796 624.722 143.043 481.679 926.589 704.455 445.258 390.218 259.197 176.252 213.965 157.074 178.796 113.431 83.3654 222.133 212.255 69.3994 196.342 189.613 60.8706 187.767 128.742 141.376 24.4877 25.7913 46.9428 25.7049 21.2379 107.989 77.9389
internal_count=8000 4156 3510 3125 2532 618 1914 3844 2883 1767 1576 1116 747 829 593 646 426 326 961 894 282 838 815 277 780 538 543 114 123 222 128 94 385 287
is_linear=0
shrinkage=0.03


Tree=12
num_leaves=35
num_cat=0
split_feature=23 23 15 23 15 9 9 15 9 15 23 9 15 16 2 9 23 23 15 9 23 15 23 6 0 23 19 17 10 23 20 15 1 9
split_gain=47.1552 24.3545 26.4405 25.5454 27.4698 27.5497 26.9906 21.3024 15.3881 16.3162 14.9273 19.4213 16.6159 14.7583 17.5338 14.5094 14.1178 11.8141 12.9788 10.635 9.09401 15.4388 10.7322 16.6943 9.37275 8.999 8.65217 7.96696 7.94768 7.51109 7.2626 7.03779 6.21259 5.67634
threshold=61.12444769896382 17.167124302560506 96.488297960139406 37.32427331709146 94.119572016867565 5.5372502122224345 7.4655779060417444 93.274125105798603 8.8711774491309132 97.041306667746696 49.256032718728768 6.8897524871904219 98.00903874033456 1.0000000180025095e-35 41.772284637258174 7.5379480281056308 54.05084875508873 74.834618070684172 98.98858484352246 5.0516021581271469 80.592005123582553 97.123938054656989 68.43325912506711 1.0000000180025095e-35 56.500000000000007 70.233563374323793 1.5000000000000002 2051.7004148626243 4.6530469918548318 30.41015810426336 35.030866401195148 97.613119655123995 1.5000000000000002 5.8983678950068716
decision_type=2 2 2 2 2 2 2 2 2 2 2 2 2 2 2 2 2 2 2 2 2 2 2 2 2 2 2 2 2 2 2 2 2 2
left_child=1 33 3 4 5 -3 16 -8 9 -2 19 12 -12 17 25 -16 -5 18 -11 31 21 24 -23 -24 30 -15 32 -26 -13 -6 -10 -4 -22 -1
right_child=8 2 10 6 29 -7 7 -9 20 13 11 28 -14 14 15 -17 -18 -19 -20 -21 26 22 23 -25 27 -27 -28 -29 -30 -31 -32 -33 -34 -35
leaf_value=-0.016250128741848342 0.035225788259785881 0.0096459729569452722 -0.0010662371933601344 0.010369960223882041 -0.042692794963924488 -0.0069204740984889247 0.0082105605562388002 -0.006935167280138722 0.015844002800645653 0.028201125544652646 0.011660897654694576 -0.010063328173127968 -0.00731139404563235 -0.038573786839377941 0.014964408076923522 -0.0032163246844065293 0.039621463606348842 0.036695293909080572 0.005500510728662574 -0.032964908450143299 0.042092440049593734 -0.032713835025773304 -0.020969635884462094 0.0076049236492140813 0.006857053361707899 7.3667035873099058e-05 0.001048295009341069 0.042929732778888896 -0.033342314693425766 -0.017015471557488386 -0.010976327283116805 -0.023060663244727463 0.0054605851539593631 -0.039919468072134062
leaf_weight=53.338834971189499 24.334324896335602 130.81848740577698 28.966133609414101 220.69015820324421 13.059237420558928 290.03837877511978 140.99524343013763 204.38280308246613 14.970337301492689 34.05469922721386 63.336527019739151 29.679096698760986 119.6378593146801 11.771032080054285 96.415376573801041 65.952848017215729 15.960760325193403 23.702744692564011 70.12764011323452 34.644442722201347 11.356708392500879 15.982085421681402 33.849016308784485 39.491947993636131 12.337365761399271 9.3490240275859815 24.669559359550476 10.653107836842535 25.528311178088188 57.903464376926422 22.444619849324226 24.676018357276917 7.26240549981594 11.66465888917446
leaf_count=190 118 550 114 941 39 1112 595 791 66 159 270 111 456 37 425 263 81 117 293 110 58 51 119 165 52 38 101 54 82 207 85 84 31 35
internal_value=1.33279e-06 -0.00276691 -0.00192737 0.000340667 -0.00468583 -0.0017546 0.00459855 -0.000733623 0.0076828 0.0115632 -0.00940162 -0.00545265 -0.000705824 0.00967328 0.00416988 0.00754774 0.0123999 0.0175038 0.0130181 -0.019951 0.000897669 -0.00257339 -0.0105171 -0.00552265 0.00907005 -0.0213444 0.0129981 0.0240569 -0.0210175 -0.0219319 -5.83782e-05 -0.0113434 0.0283329 -0.0206989
internal_weight=1994.05 1465.32 1400.32 1073.85 491.82 420.857 582.029 345.378 528.725 335.708 326.468 238.182 182.974 311.373 183.488 162.368 236.651 127.885 104.182 88.2866 193.017 149.728 89.323 73.341 60.4054 21.1201 43.2887 22.9905 55.2074 70.9627 37.415 53.6422 18.6191 65.0035
internal_count=8000 5768 5543 4316 1908 1662 2408 1386 2232 1450 1227 919 726 1332 763 688 1022 569 452 308 782 592 335 284 257 75 190 106 193 246 151 198 89 225
is_linear=0
shrinkage=0.03


Tree=13
num_leaves=35
num_cat=0
split_feature=23 23 27 23 17 9 23 7 25 25 0 27 28 26 9 0 20 17 25 0 20 27 4 20 27 9 28 9 23 28 16 12 3 9
split_gain=45.2218 19.6167 15.1371 13.9412 11.0741 10.2452 11.5994 10.9943 10.0151 11.6737 9.51464 8.8517 11.6315 10.8878 8.84893 9.12182 9.77473 7.83108 7.671 10.0749 6.87316 11.461 7.74617 6.4592 10.2374 9.76105 6.2001 5.39223 6.169 9.24234 6.62375 5.12029 5.19748 4.86606
threshold=50.91165428392641 17.167124302560506 9.3935095117963954 71.634115218996996 2481.5975799980715 5.2108866331964991 62.147902847326144 1.5000000000000002 64.785997376581392 10.511921119208026 13.500000000000002 10.427781497641867 0.00047186242802635907 0.67311247840303556 9.6460193453302949 72.500000000000014 32.77620528939763 1309.5568340477064 48.825706809940691 70.500000000000014 36.05316658647984 10.542692230546189 1.0000000180025095e-35 37.986567521435056 14.69393189903966 4.1800023946003071 0.00022985136003186269 5.8983678950068716 13.195514424410261 0.0010130468722826696 1.0000000180025095e-35 1.5000000000000002 188.63468255723478 7.9165336803177917
decision_type=2 2 2 2 2 2 2 2 2 2 2 2 2 2 2 2 2 2 2 2 2 2 2 2 2 2 2 2 2 2 2 2 2 2
left_child=1 27 14 5 8 6 18 10 9 -5 -7 12 -4 -14 15 16 -3 -11 19 -2 21 -9 -22 25 -25 -13 -12 28 -1 -30 -31 32 -8 -6
right_child=3 2 11 4 33 7 31 20 -10 17 26 23 13 -15 -16 -17 -18 -19 -20 -21 22 -23 -24 24 -26 -27 -28 -29 29 30 -32 -33 -34 -35
leaf_value=-0.026280790575444361 0.0038494179710685697 0.02424745519404024 -0.018197403703502379 -0.030054795344688953 0.04004559997765253 -0.013811281310432086 0.02908852958785494 0.016726951961076774 -0.034488535522201866 0.036915615455577241 0.037529813514569924 0.013887706222074683 0.0068824954401491764 0.039440925586320785 -0.032404355485793637 -0.024276326833729715 -0.0077654484966405736 0.008853951443679061 -0.016972895674908478 0.034994794377958369 0.0012476556120103752 -0.0050345869961360718 -0.016636381025418669 0.01972648630146627 -0.0010057595144906397 -0.0040996080746387477 0.0050167940788533316 -0.038909367419435729 -0.019277012081810652 0.038087432487188835 -0.0083725072760468394 0.043579143852578252 -0.01312545113037469 0.017939592914726681
leaf_weight=25.922590956091881 48.114571958780289 8.9750335812568647 10.249964103102682 6.3548739254474631 12.836412742733954 24.103931337594986 7.0866069495677966 29.504897549748421 4.6653280407190314 9.5340189635753614 5.2272897958755484 28.002559378743172 31.76903960108757 13.28556291759014 16.060409784317017 28.571730747818947 120.29350560903549 149.6247343569994 10.852667182683943 11.613425463438032 33.050920739769936 81.192268207669258 60.45673206448555 28.9671780616045 79.021675273776054 652.79549969732761 361.02902294695377 11.614395961165426 16.910847038030628 5.5910584032535535 4.8433265686035156 12.478386536240576 3.7278026789426804 38.771034568548203
leaf_count=86 197 41 37 21 65 89 34 131 15 47 26 120 132 65 52 98 458 638 39 56 135 319 222 129 313 2548 1495 35 59 27 18 64 14 175
internal_value=1.21871e-06 -0.00413844 -0.00310994 0.00493249 0.0114793 0.00281194 0.0120195 0.00134457 0.00771853 0.00898461 0.0043021 -0.00144017 0.0101207 0.0167477 -0.0111694 -0.00893245 -0.00546245 0.0106168 0.00581791 0.010102 -0.00427841 0.000731272 -0.0102619 -0.00226071 0.00452623 -0.00334708 0.00551743 -0.020124 -0.0157857 -0.00550022 0.016206 0.0303461 0.0140182 0.0236872
internal_weight=1993.1 1082.87 1017.99 910.225 221.786 688.439 93.8735 594.565 170.179 165.514 390.36 844.091 55.3046 45.0546 173.901 157.84 129.269 159.159 70.5807 59.728 204.205 110.697 93.5077 788.787 107.989 680.798 366.256 64.8822 53.2678 27.3452 10.4344 23.2928 10.8144 51.6074
internal_count=8000 4218 3993 3782 961 2821 404 2417 721 706 1610 3344 234 197 649 597 499 685 292 253 807 450 357 3110 442 2668 1521 225 190 104 45 112 48 240
is_linear=0
shrinkage=0.03


Tree=14
num_leaves=35
num_cat=0
split_feature=28 20 18 18 11 10 25 14 20 2 18 7 28 27 25 11 9 27 9 27 8 9 26 26 18 0 7 0 20 25 20 18 20 27
split_gain=7.15728 6.63683 9.76833 10.5622 7.88032 6.39797 6.04152 9.21746 10.1513 10.8729 8.9933 5.90025 5.88278 6.28568 6.82752 9.88304 8.16466 6.18904 6.12271 7.36489 10.5566 7.92443 5.51836 10.1062 9.47081 8.80288 7.4135 6.9215 5.55703 5.44657 5.25093 4.99289 5.85188 4.82796
threshold=0.0013592349230198816 32.999119534861912 3.2378783321760389 3.0107777143532632 5.2569009426969755 0.57723083613731363 28.430640173512241 168.50000000000003 35.090952531507746 62.465444418493561 3.2378783321760389 1.0000000180025095e-35 0.0012632371210948977 8.469504526032166 35.167736382102099 4.9906732023855787 6.2323418176607239 7.8819526255111603 9.3975791164450193 12.822406226625928 3.5000000000000004 9.2415772762926967 0.50264505618832001 0.30390367203555924 3.2271959223909299 41.500000000000007 1.5000000000000002 14.500000000000002 37.763336795378486 34.104585734855981 35.058937299449447 2.3982389920612284 32.677451099371375 9.1223129700189975
decision_type=2 2 2 2 2 2 2 2 2 2 2 2 2 2 2 2 2 2 2 2 2 2 2 2 2 2 2 2 2 2 2 2 2 2
left_child=5 2 3 31 -4 11 7 8 10 -10 -3 -1 18 17 16 -16 -15 -14 19 20 -7 -21 23 24 -8 -25 27 -24 -28 -13 -9 -2 -33 -20
right_child=1 6 4 -5 -6 12 22 30 9 -11 -12 29 13 14 15 -17 -18 -19 33 21 -22 -23 26 25 -26 -27 28 -29 -30 -31 -32 32 -34 -35
leaf_value=0.0067676560279081024 -0.0092755794899553896 0.00081553502907635465 0.03872145546385522 -0.027250717047054705 -0.0097244780723345029 0.00061147567115150655 -0.010743563957240052 0 -0.015099456182234459 0.0040922348342253782 0.028911512298750667 -0.033294044847937833 0.0056771849725229546 0.034244603510850069 -0.0061377732576772632 0.034135413852615329 0.0089012317649692016 -0.032725562891277316 -0.012075215898289235 -0.00068014210074391723 0.0098330341151689708 0.025824395928858719 -0.026512485977128911 -0.0049176959776479727 0.016720387724967849 -0.030630840260872299 -0.018089433415672408 0.0053135005207178825 0.012377910276681281 0.0013529147705629353 0.037363826977461684 0.025194335369608214 -0.004672499752077652 -0.00069065088714393623
leaf_weight=8.3965489715337771 11.382017850875853 41.429863438010216 11.559334516525267 10.434812590479849 3.7310251593589774 271.69369758665562 45.16153372824192 5.9807929694652548 68.841759145259857 42.409049779176712 13.644442364573477 13.051752060651781 9.1515098214149457 18.683807924389839 29.295493766665459 6.5228194445371619 31.899269506335258 5.9559915512800208 54.892242565751076 774.54760073125362 191.40643680095673 10.081490963697432 6.5215874314308158 19.046653509140015 14.747408166527746 35.625006720423698 34.715043976902962 68.470737606287003 5.9830706417560569 5.4108643829822531 8.4109985232353193 15.886036187410356 8.7648640722036344 88.839411839842796
leaf_count=35 43 167 57 35 14 1095 170 24 252 174 64 42 38 90 114 32 136 19 206 3091 814 47 22 74 65 118 125 282 26 22 41 73 34 359
internal_value=1.51652e-06 -0.00321849 0.00589534 -0.000853856 0.0265398 0.00100735 -0.0046048 -0.000462293 -0.0024976 -0.00773549 0.00796418 -0.0134311 0.00127288 0.00824385 0.0113952 0.00117856 0.0184784 -0.00930054 0.000758919 0.00143831 0.00443844 -0.000325453 -0.00782658 -0.0125057 -0.00384998 -0.0218328 -0.00312695 0.00240285 -0.0134251 -0.0229128 0.0223602 0.00673307 0.0143813 -0.00509093
internal_weight=1992.57 472.746 61.7581 46.4677 15.2904 1519.83 410.988 180.717 166.325 111.251 55.0743 26.8592 1492.97 101.509 86.4014 35.8183 50.5831 15.1075 1391.46 1247.73 463.1 784.629 230.271 114.581 59.9089 54.6717 115.69 74.9923 40.6981 18.4626 14.3918 36.0329 24.6509 143.732
internal_count=8000 1860 256 185 71 6140 1604 722 657 426 231 99 6041 429 372 146 226 57 5612 5047 1909 3138 882 427 235 192 455 304 151 64 65 150 107 565
is_linear=0
shrinkage=0.03


Tree=15
num_leaves=35
num_cat=0
split_feature=23 15 23 9 15 15 23 9 15 23 9 15 18 9 23 9 23 15 15 23 15 9 23 9 15 15 9 0 9 23 23 15 7 23
split_gain=42.7536 22.6793 32.3692 32.25 28.5414 14.4177 17.7418 23.9817 14.3737 19.1082 26.2102 17.5485 16.1974 14.0705 13.69 13.4927 12.0482 15.7714 11.6658 11.0853 12.6654 10.7162 10.4478 14.5733 21.2313 10.1222 9.85337 9.62315 11.1719 9.17717 8.87141 10.0587 8.8204 7.86889
threshold=55.661357834967824 95.618775851813055 34.986915210476916 7.2861415297362031 91.47913272342187 94.119572016867565 17.167124302560506 5.3109777707578534 96.032655512595781 69.947137907974152 8.4820366254378516 99.112509629639803 0.92825760523342893 6.3340289864104546 47.364930403475022 7.5619204617270102 48.174304749944675 94.264422102627094 99.420601025267374 83.600005847292195 96.956191650975271 5.9443613882635287 39.048901819631787 5.44021261791766 97.965720481911092 100.44556874612836 9.5098867832569081 56.500000000000007 9.278196774834937 46.973899980529893 49.44578297336755 98.773170571548533 1.0000000180025095e-35 74.834618070684172
decision_type=2 2 2 2 2 2 2 2 2 2 2 2 2 2 2 2 2 2 2 2 2 2 2 2 2 2 2 2 2 2 2 2 2 2
left_child=1 2 5 16 26 6 -1 -8 27 10 11 21 -12 -13 -6 18 17 -4 -11 20 -17 -10 -3 24 29 -21 -5 28 -2 -24 -25 -32 -30 -20
right_child=8 22 3 4 14 -7 7 -9 9 15 12 13 -14 -15 -16 19 -18 -19 33 25 -22 -23 23 30 -26 -27 -28 -29 32 -31 31 -33 -34 -35
leaf_value=-0.01957114092893646 0.022100880500261322 -0.029220948903069484 0.021443025366699488 0.026884183408712736 -0.011539353313728209 -0.024168938757653753 0.0095066812768809413 -0.0074192972650104182 0.025587735489217649 0.053279735811437211 0.024531138382388101 0.0021722000330623584 -0.019602390120838278 -0.019457985694876643 0.0022876391053103756 0.036225731677727413 0.036853333793886146 0.0026518790837213395 0.0075568324111187643 0.035085722929288576 0.0011694088939319316 0.0065646637804954843 0.0012650043046474443 -0.025587697263560753 -0.014947781475458362 0.0041936950724303368 -0.0026674131555707746 0.03049430523106287 0.026975468009054645 0.023586384734022213 -0.0065972892717927013 -0.041619408228546463 -0.012985349344496503 0.033300722997778864
leaf_weight=64.729326874017715 30.82093234360218 24.729881823062897 76.924312457442284 37.290174663066864 148.85368572175503 39.017095342278481 105.54726915061474 260.56352607905865 34.169205546379089 9.674768462777136 8.039761155843733 91.750479802489281 73.828412666916847 37.958554536104202 112.34992849826813 9.6959057748317701 19.175349354743958 85.828618824481964 31.151359349489212 21.159428954124451 156.75228498876095 127.18441474437714 48.782425239682198 50.657866895198822 59.686979487538338 18.254002302885056 13.393558293581007 31.345286101102829 6.1702400147914913 25.430112168192863 84.645170584321022 8.0169000625610334 21.872659236192703 16.920987218618393
leaf_count=225 141 81 346 178 553 133 444 994 158 52 37 375 262 136 459 48 95 351 133 105 639 531 196 170 216 77 54 150 29 116 327 24 82 83
internal_value=1.79717e-06 -0.00332519 -0.00106951 0.00428546 -0.00155366 -0.00670972 -0.00510421 -0.00252075 0.00580327 0.0041994 -0.000155685 0.00404759 -0.015146 -0.00413177 -0.00557188 0.0103788 0.0143194 0.0115857 0.023214 0.00673017 0.00328853 0.0106569 -0.0104989 -0.00878727 -0.00161591 0.0210232 0.0189772 0.01702 0.00966427 0.00903725 -0.0154339 -0.00977504 -0.00385162 0.0168431
internal_weight=1992.37 1265.62 963.673 493.816 311.887 469.857 430.84 366.111 726.749 636.54 372.931 291.063 81.8682 129.709 261.204 263.609 181.928 162.753 57.7471 205.862 166.448 161.354 301.949 277.219 133.9 39.4134 50.6837 90.2091 58.8638 74.2125 143.32 92.6621 28.0429 48.0723
internal_count=8000 4962 3832 2036 1244 1796 1663 1438 3038 2636 1499 1200 299 511 1012 1137 792 697 268 869 687 689 1130 1049 528 182 232 402 252 312 521 351 111 216
is_linear=0
shrinkage=0.03


Tree=16
num_leaves=35
num_cat=0
split_feature=23 23 15 23 27 23 15 11 16 25 15 27 23 25 10 5 23 23 11 10 15 23 2 18 15 6 22 15 23 14 22 11 0 3
split_gain=40.5858 20.633 26.9628 25.7491 23.0885 22.7789 21.3922 13.7896 12.84 17.9332 12.4253 12.1172 11.5816 9.77188 10.6894 10.1976 9.15341 8.62204 8.40938 10.2172 10.6645 8.00636 7.85617 7.62706 7.27389 7.1103 7.75781 6.94371 6.89809 7.73803 8.77256 6.73076 6.70981 6.34659
threshold=61.12444769896382 20.263869396103605 94.119572016867565 40.489455875718349 23.282168755422301 42.426683798632581 97.38687566908375 6.6689963677361979 1.0000000180025095e-35 13.168450251136028 91.47913272342187 7.121766449876584 80.592005123582553 34.843581140929849 2.4075831538745969 1.0000000180025095e-35 69.947137907974152 49.01877074250352 3.5830237976419057 6.9863592138025981 99.158621825898962 30.41015810426336 146.2579556270438 2.9095770476111524 91.618613425184193 1.0000000180025095e-35 62.111495822481224 97.041306667746696 13.195514424410261 70.500000000000014 53.910408826147403 3.5830237976419057 44.500000000000007 144.5288871949721
decision_type=2 2 2 2 2 2 2 2 2 2 2 2 2 2 2 2 2 2 2 2 2 2 2 2 2 2 2 2 2 2 2 2 2 2
left_child=1 24 4 21 5 10 7 -5 11 16 -3 33 13 15 -15 -13 -10 -8 19 20 -11 -4 27 -7 28 26 -6 -20 -1 -30 -31 -23 -21 -2
right_child=8 2 3 6 25 23 17 -9 9 18 -12 12 -14 14 -16 -17 -18 -19 22 32 -22 31 -24 -25 -26 -27 -28 -29 29 30 -32 -33 -34 -35
leaf_value=-0.02347055563386179 -0.036694085533491412 0.0044178439108845963 -0.040842750556718016 0.0027689277545572323 0.022970436131537326 0.014724543022541043 -0.023512945097898367 -0.019342181798330943 -0.034036342222490461 0.027130303092610535 -0.0059427584746687707 0.00974478690893066 0.040048356649694965 0.024008258087443217 -0.0018666731436159088 0.029730371676629543 -0.00024246625993540802 -0.0077439502031578268 0.01525545214371892 0.012664878416045459 0.0071018165158812166 -0.010820576596698311 -0.030308420730604961 -0.0020546385579024128 -0.028676348603713056 0.036677903673127434 -0.013038668841342574 -0.001398388649055708 0.02227816907224631 -0.01975724538811631 0.0064439856538603324 -0.028569194741226871 -0.011582351964353151 0.0010473286204166874
leaf_weight=25.226098492741585 4.475913509726527 164.96324463188648 13.00684233009815 356.70365454256535 17.796448633074764 121.19539147615433 38.62420266866684 27.095404282212257 16.055422648787502 43.623078525066376 280.29331889748573 48.165310919284821 16.145427286624908 19.234439358115196 53.755586549639702 46.502531185746193 13.624036267399786 175.84540103375912 28.171346724033356 17.145227253437042 55.526252150535583 76.288601920008659 6.9066867828369132 29.695189997553825 27.306122407317162 20.435053035616875 7.3005859255790702 107.28033120930195 8.0376109629869443 28.051679387688637 18.813554480671883 26.831327825784683 24.797380715608597 26.306247934699059
leaf_count=85 14 684 39 1461 81 530 131 97 52 205 1076 206 82 89 215 220 55 667 125 75 237 284 23 118 89 99 27 433 36 98 77 89 94 107
internal_value=3.11155e-06 -0.0025658 -0.00155715 -0.00556845 0.00289972 0.00131271 -0.00304422 0.00118304 0.00713711 0.00323409 -0.00209053 0.0127963 0.0157186 0.013295 0.00491692 0.0196673 -0.0188299 -0.010631 0.00557716 0.0107638 0.0160111 -0.0184937 0.000386691 0.0113843 -0.0152151 0.0234505 0.0122381 0.00203844 -0.0104931 -0.00435791 -0.00912887 -0.0155431 -0.00151517 -0.00444829
internal_weight=1991.22 1463.51 1356.07 714.395 641.679 596.147 598.269 383.799 527.715 313.13 445.257 214.585 183.803 167.658 72.99 94.6678 29.6795 214.47 283.45 141.092 99.1493 116.127 142.358 150.891 107.435 45.5321 25.097 135.452 80.1289 54.9028 46.8652 103.12 41.9426 30.7822
internal_count=8000 5768 5383 2768 2615 2408 2356 1558 2232 1299 1760 933 812 730 304 426 107 798 1192 611 442 412 581 648 385 207 108 558 296 211 175 373 169 121
is_linear=0
shrinkage=0.03


Tree=17
num_leaves=35
num_cat=0
split_feature=23 15 23 15 15 23 15 23 27 20 11 0 23 27 14 2 27 25 15 15 20 27 15 20 28 15 27 0 14 23 15 12 27 14
split_gain=38.8444 23.1 22.8286 17.6372 15.1988 24.0546 12.7698 15.7727 22.1244 11.9401 11.4604 15.3429 11.4307 11.7962 11.2427 10.6673 10.5433 11.493 9.87932 9.4043 9.9202 9.36605 8.92823 8.61176 8.03834 7.72844 7.26973 6.68963 6.66165 6.53351 6.7098 11.8949 6.69468 6.50909
threshold=50.91165428392641 95.618775851813055 34.986915210476916 91.47913272342187 97.256884973026146 61.278439646236755 94.119572016867565 17.167124302560506 19.417238135260529 37.119277580231241 5.5682698145580343 51.500000000000007 83.600005847292195 20.47678357899601 83.500000000000014 37.368175900264568 20.949669491472328 47.299986381852243 94.182008811988155 93.73033303651718 33.09067617648487 10.619834630340824 100.44556874612836 36.010560538169493 0.001723064004429198 99.158621825898962 7.5777186286485749 45.500000000000007 71.500000000000014 39.048901819631787 96.488297960139406 1.5000000000000002 21.794117058260575 160.50000000000003
decision_type=2 2 2 2 2 2 2 2 2 2 2 2 2 2 2 2 2 2 2 2 2 2 2 2 2 2 2 2 2 2 2 2 2 2
left_child=1 2 6 9 10 26 7 -1 -9 -4 11 14 13 15 -2 -7 17 -5 -18 -12 -21 -11 -14 -16 28 -15 -6 -22 -13 -3 31 33 -33 -31
right_child=4 29 3 16 5 12 -8 8 -10 21 19 24 22 25 23 -17 18 -19 -20 20 27 -23 -24 -25 -26 -27 -28 -29 -30 30 -32 32 -34 -35
leaf_value=-0.018560395725080819 0.023252429544666109 -0.027973401577185007 0.028267690304511567 -0.003276912099287209 -0.041593230862403525 -0.018917257051915975 -0.022854697502533283 -0.00726120087240346 0.0088523519778847069 -0.025221668996321608 0.0297687359245048 0.045229054572372834 0.034118063560913778 0.040193106359042788 0.010206091976957052 0.003359926694930892 0.038086064154619841 0.01316874530335135 0.0058410182502275677 0.028532876443685837 0.0041551647925997534 0.01965968984127768 0.0052884130577137145 -0.0078298594470241987 -0.0027218288028710248 0.011001790153845656 -0.0065529041573620887 -0.013519549501938483 0.021781357882812061 0.024288242232742358 -0.015637988609812525 -0.020839226075214649 0.0085536252079570912 -0.015397666320001011
leaf_weight=64.444586753845215 28.157004207372665 24.634395658969879 38.12926159799099 282.38766264915466 5.3972503691911689 20.338437750935555 38.908205315470695 257.13658501207829 108.82337321341038 7.9944816231727627 9.1218199431896192 13.796305194497107 21.24255496263504 10.90157702565193 50.178211063146591 319.4401843547821 11.610772669315336 43.969896122813225 33.646908476948738 8.3856689631938917 34.767538353800774 8.2993913888931257 18.786327943205833 44.791860967874527 9.5069628059864026 35.914648547768593 165.10393756628036 41.803567826747894 71.319014877080917 16.081068962812427 105.33481268584728 26.503222361207008 8.97828461229801 4.4756455570459357
leaf_count=225 130 81 184 1107 16 73 133 981 457 28 44 71 106 56 216 1321 57 189 140 40 144 39 80 174 38 157 631 157 328 73 377 93 38 16
internal_value=2.45082e-06 -0.00383669 -0.00182907 0.00318852 0.00457622 0.00175939 -0.00639619 -0.0048845 -0.002451 0.0191109 0.0099464 0.0137264 0.00557362 0.00396843 0.00665915 0.00199847 0.000831524 -0.00103612 0.0143766 0.00112326 -0.00194464 -0.0020361 0.0208305 0.00163796 0.0228259 0.0180689 -0.00774469 -0.00542617 0.0257494 -0.0134558 -0.0111706 -0.00264095 -0.0132272 0.0152936
internal_weight=1990.31 1081.36 895.351 426.038 908.953 597.125 469.313 430.405 365.96 54.4231 311.828 217.749 426.624 386.595 123.127 339.779 371.615 326.358 45.2577 94.0786 84.9568 16.2939 40.0289 94.9701 94.6223 46.8162 170.501 76.5711 85.1153 186.007 161.373 56.0382 35.4815 20.5567
internal_count=8000 4218 3540 1744 3782 2440 1796 1663 1438 251 1342 957 1793 1607 520 1394 1493 1296 197 385 341 67 186 390 437 213 647 301 399 678 597 220 131 89
is_linear=0
shrinkage=0.03


Tree=18
num_leaves=35
num_cat=0
split_feature=23 23 23 9 23 19 27 9 23 27 28 0 0 20 19 14 26 9 26 9 22 9 14 9 18 25 24 14 14 1 3 3 0 23
split_gain=36.6331 16.8992 10.5849 13.6014 11.6461 10.5713 10.2101 12.8646 12.0407 10.6033 11.1331 10.5858 10.0691 9.58484 12.1757 8.88691 8.18139 8.10965 7.69634 9.82785 9.38711 7.66974 10.1198 7.45774 10.1256 7.22898 12.1021 11.028 6.41004 6.38734 5.21936 5.17569 5.01362 5.36546
threshold=55.661357834967824 18.793883618772529 80.592005123582553 8.1722810638425543 69.947137907974152 2.5000000000000004 9.3935095117963954 9.6721919225291213 50.109079841482178 10.427781497641867 0.00046653336068784736 23.500000000000004 72.500000000000014 33.809514181208208 1.0000000180025095e-35 131.50000000000003 0.67311247840303556 9.5098867832569081 0.19276347363088517 8.4820366254378516 52.499361747653147 8.3441285718977607 157.50000000000003 5.7858938609407913 1.8848740751739008 43.957331188891807 1.0000000180025095e-35 110.50000000000001 177.50000000000003 1.5000000000000002 171.82937106665045 176.78212784361548 40.500000000000007 85.434066718207177
decision_type=2 2 2 2 2 2 2 2 2 2 2 2 2 2 2 2 2 2 2 2 2 2 2 2 2 2 2 2 2 2 2 2 2 2
left_child=1 -1 3 4 25 17 7 8 12 10 30 -10 -3 -6 -15 18 -12 -4 20 -20 -5 -17 -23 28 -25 26 -2 -27 -11 -19 -8 -9 -7 -34
right_child=2 6 5 15 13 32 9 31 11 23 16 -13 -14 14 -16 21 -18 29 19 -21 -22 22 -24 24 -26 27 -28 -29 -30 -31 -32 -33 33 -35
leaf_value=-0.016291644440342711 0.00091936701994205033 -0.0056817271013231609 0.033952759988569309 -0.02625282943642946 0.037955060966587614 0.020267827141544771 -0.031999684736855473 -0.0419732563547391 -0.021488885126060495 0.0022040400948560024 0.0088919905299841302 0.019058081858123938 -0.025874381882864384 0.037582471620809181 0.0058605505975203214 -0.032511035002571277 0.035297625640522211 0.024293957154357414 0.02584047220618424 0.003233231263731211 0.0072142654110778082 -0.01303806451767966 0.0056315449527965149 0.00049642052315413375 -0.0077759789743866107 0.010708021893502336 0.014848924096352068 -0.015386627518065656 -0.020998193244313026 -0.011524966544923089 0.0067866601033797769 -0.0075305114788622955 -0.026421949585508735 0.0098448620004418404
leaf_weight=81.435419976711273 120.20732586085796 126.68185465037823 29.918818160891533 15.502737760543825 17.062999948859215 6.5176640450954464 6.7001245319843274 13.227716535329821 7.0780050009489051 367.14225083589554 35.820633977651596 26.789252117276192 27.210854262113571 13.734777942299841 53.622629106044769 9.7113055437803251 15.50320655107498 9.4261640757322329 20.168863475322723 122.78461591899395 13.980592057108877 58.399706140160561 46.472181335091591 243.91780065000057 289.66377529501915 25.01858788728714 106.80491076409817 33.950145840644836 10.803210422396658 7.9644278883934012 5.2132600992918015 6.3488015234470359 8.3951496928930265 5.9607089459896079
leaf_count=289 491 488 149 53 86 30 22 40 25 1482 151 121 92 69 228 32 75 45 94 505 59 218 194 982 1111 107 467 125 38 31 22 24 29 26
internal_value=3.26293e-06 -0.00307877 0.00537783 0.00419568 0.00799388 0.0166428 -0.00216086 -0.00820627 -0.00573622 -0.000867399 0.0109796 0.0103315 -0.00932002 0.0178013 0.0125099 -0.000687198 0.0170907 0.0244663 0.00359159 0.00649638 -0.0102394 -0.00717367 -0.00471287 -0.0016981 -0.00398438 0.00506739 0.00750667 -0.00421531 0.0015142 0.00760423 -0.0146998 -0.0312957 -0.000868238 -0.011023
internal_weight=1989.14 1263.54 725.604 657.421 370.401 68.1829 1182.1 207.336 187.76 974.764 63.2372 33.8673 153.893 84.4204 67.3574 287.02 51.3238 47.3094 172.437 142.953 29.4833 114.583 104.872 911.527 533.582 285.981 227.012 58.9687 377.945 17.3906 11.9134 19.5765 20.8735 14.3559
internal_count=8000 4962 3038 2728 1573 310 4673 790 726 3883 270 146 580 383 297 1155 226 225 711 599 112 444 412 3613 2093 1190 958 232 1520 76 44 64 85 55
is_linear=0
shrinkage=0.03


Tree=19
num_leaves=35
num_cat=0
split_feature=23 15 23 27 27 23 15 23 23 11 15 10 17 10 10 11 23 24 7 27 27 23 15 10 0 0 25 27 23 28 15 19 15 22
split_gain=34.5843 24.1185 26.1954 23.0463 16.1632 16.8001 13.774 22.4319 13.4429 13.5502 17.5407 12.5733 11.8501 10.5354 10.1586 15.7423 11.9262 10.1573 9.09328 12.7493 11.9748 8.37785 12.3138 8.25985 7.85338 7.76008 11.9797 11.3438 8.65398 8.30071 7.16185 7.23577 6.87657 6.86484
threshold=50.495247240720154 94.119572016867565 20.263869396103605 23.282168755422301 9.5765330087883846 34.986915210476916 96.799230210220273 71.634115218996996 32.609263698907661 3.5830237976419057 95.618775851813055 5.3914696060813343 2481.5975799980715 2.8876235847283591 4.8663722930674682 4.5334156870340809 62.147902847326144 1.0000000180025095e-35 1.0000000180025095e-35 11.449533896203123 18.05120971527402 64.126615870277718 97.175882650128543 1.3958289722669852 72.500000000000014 60.500000000000007 21.957127878327768 16.203026148866552 63.204258994855344 0.00037597601682908666 91.522749926371986 1.5000000000000002 100.8251543990603 50.852084255638523
decision_type=2 2 2 2 2 2 2 2 2 2 2 2 2 2 2 2 2 2 2 2 2 2 2 2 2 2 2 2 2 2 2 2 2 2
left_child=1 2 30 4 24 -6 25 14 -3 10 11 -10 18 -11 15 16 -8 -17 19 -9 -20 -16 -23 -12 -4 29 -27 28 -28 33 31 -1 -14 -2
right_child=6 8 3 -5 5 -7 7 12 9 13 23 -13 32 -15 21 17 -18 -19 20 -21 -22 22 -24 -25 -26 26 27 -29 -30 -31 -32 -33 -34 -35
leaf_value=-0.017481486002103221 0.0080135765332890168 -0.030077216876023983 -0.0052114945614208236 0.022456270596718623 -0.002293358380073854 0.0097859451403475572 -0.00023014515891860686 0.04233635095609678 0.011651182159354477 -0.01297154721017044 0.017984707354434734 -0.013471230869414846 0.026333302997401102 -0.039309358416671478 -0.017266540774587402 -0.019591426961319422 0.013826953228617581 -0.00028345178857683913 -0.00094586757019975089 0.00598688729438384 0.030455641351853982 0.044428448590266317 -0.0054569462661132728 -0.013252717989618516 -0.024153244784037128 0.035617648432356847 -0.0014564576200530549 0.039364311847844315 0.031902212319732552 0.0043533896946781423 -0.026713026836291148 0.00078738403813076072 -0.010777161534553128 0.046905741475178057
leaf_weight=42.252750664949417 9.4868073016405123 27.786534130573273 114.98251324892044 45.485844761133194 224.62522050738335 191.1598157286644 140.95524157583714 13.254837214946745 73.084284171462059 85.943767040967941 7.7907371819019309 23.37054181098938 45.096336886286736 16.595025584101677 60.38169252872467 45.360182702541351 87.346566170454025 54.509579375386238 115.0501242429018 26.11390595138073 11.846136748790739 4.6713959276676169 51.013612419366837 123.34378252923489 24.039966151118279 23.94115261733532 40.770364046096802 9.823782727122305 8.180502384901045 163.11831429600716 29.713387086987495 34.962301507592201 4.6376413851976386 7.7915304899215689
leaf_count=149 41 90 444 207 884 814 561 67 313 316 34 86 216 51 217 162 386 218 469 110 58 24 199 450 82 119 166 50 40 682 98 138 18 41
internal_value=3.60707e-06 -0.00367672 -0.000455611 0.00197374 0.000276185 0.00324779 0.00425544 0.00192984 -0.0100209 -0.00829743 -0.00417603 0.00548679 0.00985987 -0.0173607 -0.00191513 0.000767178 0.00512913 -0.00913459 0.00595337 0.0185289 0.00198166 -0.00953908 -0.00102069 -0.0113266 -0.00856002 0.0100625 0.0177061 0.0102123 0.00410339 0.00650877 -0.0141282 -0.00915133 0.0227233 0.026231
internal_weight=1988.49 1065.14 707.222 600.293 554.808 415.785 923.35 660.237 357.915 330.128 227.589 96.4548 215.999 102.539 444.238 328.172 228.302 99.8698 166.265 39.3687 126.896 116.067 55.685 131.135 139.022 263.112 82.7158 58.7746 48.9509 180.397 106.928 77.2151 49.734 17.2783
internal_count=8000 4156 2816 2431 2224 1698 3844 2705 1340 1250 883 399 938 367 1767 1327 947 380 704 177 527 440 223 484 526 1139 375 256 206 764 385 287 234 82
is_linear=0
shrinkage=0.03


Tree=20
num_leaves=33
num_cat=0
split_feature=17 28 21 21 4 0 25 0 14 25 3 27 19 27 27 0 22 28 3 27 10 21 0 22 22 22 9 22 22 3 19 0
split_gain=6.60013 7.32728 6.74096 6.96065 7.61353 7.05593 6.69181 10.7337 9.94648 7.99891 7.7816 6.59696 7.42838 6.32359 8.59204 9.7009 7.93198 6.65194 10.5953 6.31861 9.13248 6.27929 5.90764 5.73006 5.35121 5.29961 5.22783 3.41916 4.1535 2.80177 1.90829 1.6871
threshold=1216.6066232875974 0.0013592349230198816 29.27454381546664 30.945447974932954 1.5000000000000002 65.500000000000014 20.121492273035027 38.500000000000007 176.50000000000003 13.877287681787953 198.55060671084462 6.4917136506123763 1.5000000000000002 12.822406226625928 10.130182990116811 13.500000000000002 25.258806308474714 0.0012632371210948977 148.52617887984212 13.548061630551038 2.6629811274023494 32.452387370211561 53.500000000000007 21.837752352775194 57.171012313535797 56.249112785865975 9.0880967151696233 68.732065759117305 53.910408826147403 168.30086268347563 1.5000000000000002 61.500000000000007
decision_type=2 2 2 2 2 2 2 2 2 2 2 2 2 2 2 2 2 2 2 2 2 2 2 2 2 2 2 2 2 2 2 2
left_child=25 11 6 19 5 -5 7 9 23 -3 -9 12 27 14 16 -16 -13 21 -19 30 -21 -15 24 -8 -14 29 -6 28 -2 -1 -4 -24
right_child=1 2 3 4 26 -7 8 10 -10 -11 -12 13 22 17 15 -17 -18 18 -20 20 -22 -23 31 -25 -26 -27 -28 -29 -30 -31 -32 -33
leaf_value=0.016446278024082564 0.0013301123692279783 -0.021873234959689365 -0.04378153611240107 -0.003574319031444082 -0.0096298998680187774 0.022975090972934674 0.026975107136592538 0.018903570507081625 -0.031697437063659253 0.0072027969524297861 -0.020001669483978465 0.016346143818775853 0.009347632051157637 -1.2809492934629444e-05 -0.01570241811685814 0.0096101018155368093 -0.0011144353445364907 -0.017390501757557065 0.014879253963909878 -0.029113058340055543 0.013602717918758788 -0.0084462250416328065 -0.042345747596346663 -0.0031353278382886978 -0.020061233387331397 -0.00040500331523584364 -0.04061496391328058 -0.015741939461068159 0.031227488402453145 0.055019309116463459 -0.021759904465540797 -0.020810923536312181
leaf_weight=4.4790888130664808 18.414052695035942 16.365815594792366 8.7304189205169695 42.588253870606422 22.176308527588848 11.160727947950361 5.5910592824220648 44.883609279990196 10.755252093076704 16.954264730215073 4.8458252698183051 25.468843460083008 11.008564159274103 755.48312367498875 14.14578442275524 227.42090514302254 264.44989496469498 10.776153504848478 51.936129093170166 8.5322309136390704 8.9291974604129773 88.790055930614471 5.9756420105695751 244.65857481956482 10.618744522333143 5.9527574181556693 6.5276546776294699 6.3425673842430106 5.4100952446460715 3.7396174520254135 10.052563548088072 14.130431562662123
leaf_count=20 75 57 26 167 84 51 26 200 35 71 17 113 47 3036 52 970 1060 39 229 28 39 339 18 965 38 24 20 23 26 20 35 50
internal_value=3.81083e-06 -0.000140698 -0.00344528 -0.00961142 -0.004678 0.00189206 -0.0012962 0.00608444 -0.00367049 -0.00694477 0.0149274 0.000868118 -0.00797572 0.00131538 0.00391368 0.00809126 0.000408975 -0.00020111 0.00920116 -0.0205826 -0.00702322 -0.000908626 -0.0161686 -0.00241764 -0.00486839 0.0202635 -0.0171162 0.00319281 0.00857254 0.0356003 -0.0326652 -0.0278607
internal_weight=1987.29 1973.12 462.752 118.697 82.4529 53.749 344.054 83.0495 261.005 33.3201 49.7294 1510.37 71.9001 1438.47 531.485 241.567 289.919 906.985 62.7123 36.2444 17.4614 844.273 41.7334 250.25 21.6273 14.1715 28.704 30.1667 23.8241 8.21871 18.783 20.1061
internal_count=8000 7936 1821 450 322 218 1371 345 1026 128 217 6115 277 5838 2195 1022 1173 3643 268 128 67 3375 153 991 85 64 104 124 101 40 61 68
is_linear=0
shrinkage=0.03


Tree=21
num_leaves=35
num_cat=0
split_feature=23 15 23 9 15 15 23 9 15 18 9 11 9 23 15 23 9 23 15 20 9 23 15 23 23 15 10 0 9 7 15 23 8 23
split_gain=32.7729 19.4833 26.5289 30.5097 25.4882 13.2058 15.9563 24.413 16.6132 15.1565 13.3233 12.6268 12.518 12.0382 11.7974 13.5892 21.2619 11.1533 14.1888 10.4953 10.3993 11.9325 18.9252 9.63049 9.54062 9.23163 12.4879 8.59949 10.4054 8.26765 7.97667 9.14353 7.94632 7.91392
threshold=55.661357834967824 95.618775851813055 34.986915210476916 7.2861415297362031 91.47913272342187 96.032655512595781 69.947137907974152 8.4820366254378516 99.112509629639803 0.92825760523342893 6.3340289864104546 4.4636067187031463 8.8711774491309132 49.01877074250352 94.119572016867565 17.167124302560506 5.3109777707578534 48.174304749944675 94.264422102627094 37.119277580231241 5.44021261791766 37.092098136684335 97.965720481911092 46.973899980529893 49.44578297336755 98.773170571548533 5.6552320041058488 56.500000000000007 9.278196774834937 1.0000000180025095e-35 96.956191650975271 78.143180541005208 2.5000000000000004 47.761688027687534
decision_type=2 2 2 2 2 2 2 2 2 2 2 2 2 2 2 2 2 2 2 2 2 2 2 2 2 2 2 2 2 2 2 2 2 2
left_child=1 2 14 17 19 27 7 8 11 -9 -10 -7 32 -6 15 -1 -17 18 -4 -5 21 -3 23 -23 -22 26 -26 28 -2 -30 -14 -32 -8 -24
right_child=5 20 3 4 13 6 12 9 10 -11 -12 -13 30 -15 -16 16 -18 -19 -20 -21 24 22 33 -25 25 -27 -28 -29 29 -31 31 -33 -34 -35
leaf_value=-0.017225484859443984 0.020932265043190009 -0.030586774049762434 0.020522955949671365 0.026770311414464291 -0.0098929044497218441 0.015364424155299273 0.023448698486727197 0.023513496802190784 0.0018093338482205396 -0.019217118818303573 -0.019243327391412039 -0.0031501253354487431 0.030646722957182255 0.0038506116283739699 -0.021782644006791318 0.0091030681174390799 -0.0068437900736802891 0.035541056700400774 0.0026854426216568203 -0.0026818494655811349 -0.02546179712700844 0.00085080931963248205 -0.033083776424043823 0.023212555110875624 -0.00026675071533014891 -0.039935681850327746 -0.028604219452626489 0.028646844351341804 0.025743580215128355 -0.012977548537867735 -0.0095444727970345287 0.0076418241371150131 0.008921242903093431 -0.0076886040004279519
leaf_weight=64.016952037811279 30.727112993597984 13.754135593771933 76.839837685227394 35.210593640804291 176.96699939668179 115.29118275642395 61.19478514790535 8.019462972879408 91.616524487733841 73.726796984672546 37.937399923801422 45.724068269133568 7.968649446964263 83.934755921363831 38.779466778039932 105.41995367407799 260.25522762537003 19.076729163527489 85.781353145837784 15.166009008884428 53.513496741652489 55.609401881694794 14.962805405259131 25.397496670484543 66.841751351952553 7.9844980686902991 17.654800832271576 31.150806412100792 6.1511564254760769 21.859180495142937 50.277052268385887 61.975248783826828 81.050723448395729 45.232370644807816
leaf_count=225 141 44 346 170 663 508 287 37 375 262 136 181 39 349 133 444 994 95 351 62 179 222 47 116 268 24 59 150 29 82 191 267 353 171
internal_value=2.59408e-06 -0.00291333 -0.000820637 0.00402922 -0.00165656 0.0050899 0.00355099 -0.000427812 0.00363183 -0.0149048 -0.00432945 0.0100722 0.0092139 -0.00544893 -0.00593652 -0.00448299 -0.00222763 0.013794 0.0111655 0.0178095 -0.00957395 -0.00409974 -0.00143766 0.00797551 -0.0153296 -0.00935962 -0.00631202 0.0158589 0.00890099 -0.00413935 0.00202372 -5.73163e-06 0.0152373 -0.0141891
internal_weight=1987.07 1262.4 961.448 492.976 311.278 724.67 634.782 372.315 290.569 81.7463 129.554 161.015 262.466 260.902 468.472 429.692 365.675 181.698 162.621 50.3766 300.951 154.956 141.202 81.0069 145.995 92.4811 84.4966 89.8883 58.7374 28.0103 120.221 112.252 142.246 60.1952
internal_count=8000 4962 3832 2036 1244 3038 2636 1499 1200 299 511 689 1137 1012 1796 1663 1438 792 697 232 1130 600 556 338 530 351 327 402 252 111 497 458 640 218
is_linear=0
shrinkage=0.03


Tree=22
num_leaves=35
num_cat=0
split_feature=23 15 23 9 15 15 23 15 23 9 9 23 23 9 25 15 23 9 24 9 15 7 6 11 20 25 18 15 25 23 15 15 11 23
split_gain=31.4016 18.1362 25.3384 19.7215 18.6673 18.2415 21.3472 15.887 15.1929 27.2627 14.8756 14.1505 13.8626 12.9672 16.1229 13.8947 13.2695 18.7241 12.9885 12.069 11.6318 11.5467 11.4415 11.493 11.0269 8.53913 7.56863 6.95576 6.6338 6.58568 14.4973 8.98229 8.70606 6.84667
threshold=61.12444769896382 97.38687566908375 37.32427331709146 8.104670177924918 94.119572016867565 95.503040369992462 53.57545421856161 91.47913272342187 20.263869396103605 5.5372502122224345 6.8474398281460811 49.01877074250352 49.01877074250352 8.8711774491309132 13.168450251136028 98.98858484352246 71.634115218996996 6.2567132762349198 1.0000000180025095e-35 7.4433051957202183 97.041306667746696 1.5000000000000002 1.0000000180025095e-35 2.1055057426392034 37.119277580231241 63.945018880130995 1.3532228512917857 91.618613425184193 18.787059699133099 78.143180541005208 97.919131614536823 100.07081444474703 8.1908656959378554 80.592005123582553
decision_type=2 2 2 2 2 2 2 2 2 2 2 2 2 2 2 2 2 2 2 2 2 2 2 2 2 2 2 2 2 2 2 2 2 2
left_child=1 2 4 5 8 21 -7 24 27 -10 12 -9 -3 14 18 19 17 -17 -2 -16 -21 -4 26 -24 -5 29 -14 -1 -18 30 -15 32 -31 -33
right_child=13 10 3 7 -6 6 -8 11 9 -11 -12 -13 22 25 15 16 28 -19 -20 20 -22 -23 23 -25 -26 -27 -28 -29 -30 31 -32 33 -34 -35
leaf_value=-0.0088300281939598293 -0.028845397377821939 -0.022688717633420941 0.019590138988773265 0.026819369963649455 -0.019715582756048376 -0.0054212577752237329 0.016602482827179119 -0.014157597954202725 0.01253760879948765 -0.0055582387298163055 -0.031073100907759336 0.00039696398730021393 -0.027590063154581377 0.0051093474301776654 0.034612990417683183 0.01165974342779745 0.036968468347238846 -0.013321112246583304 0.014394810603938825 0.031957195001772409 0.005842035218145275 0.0052992615926720854 0.016859380628280431 -0.0053283108921968894 -0.010063421359735276 -0.031870191682724841 -0.0052536727825134083 -0.026672361903542666 0.012178449738865458 0.027640205276436673 -0.016065787028879484 -0.032535759396303474 -0.018066991435601597 0.0045302746575242451
leaf_weight=79.560223162174225 16.412572652101517 40.885104343295097 117.83454062044621 24.237044423818588 73.297650560736656 143.24506852030754 54.489215567708015 104.99124705791473 102.77351544797421 274.62961195409298 27.032493248581886 138.48875163495541 20.343854993581772 79.519197657704353 35.949386358261108 56.920377507805824 11.452515780925749 51.009307727217674 9.6609946787357348 21.549638167023659 55.403901025652885 92.24345974624157 36.78785540163517 47.927394270896912 9.9918486773967725 7.0450007915496817 43.887345179915428 26.99973176419735 75.449114918708801 25.785904899239544 45.462594658136368 5.2322816848754909 4.0761100053787223 24.988552168011665
leaf_count=296 55 139 529 118 255 554 244 383 443 1059 87 565 68 332 178 250 58 191 43 105 233 387 160 184 39 23 169 89 337 123 165 17 15 107
internal_value=2.58298e-06 -0.00225903 -0.000856169 0.00299996 -0.00560998 0.00720204 0.000628108 -0.00314988 -0.00345399 -0.000610501 -0.0102626 -0.00586097 -0.00723796 0.00628941 0.00986143 0.0117916 0.00688048 -9.39242e-05 -0.0126077 0.0201864 0.0132968 0.0133547 -0.00293183 0.00425312 0.0158826 4.77092e-05 -0.012485 -0.0134485 0.0155917 0.00132823 -0.00255862 0.00949469 0.021123 -0.00186163
internal_weight=1985.56 1459.65 1242.78 685.521 557.261 407.812 197.734 277.709 483.963 377.403 216.864 243.48 189.832 525.917 333.808 307.734 194.831 107.93 26.0736 112.903 76.9535 210.078 148.946 84.7152 34.2289 192.11 64.2312 106.56 86.9016 185.065 124.982 60.0828 29.862 30.2208
internal_count=8000 5768 4961 2819 2142 1714 798 1105 1887 1502 807 948 720 2232 1450 1352 836 441 98 516 338 916 581 344 157 782 237 385 395 759 497 262 138 124
is_linear=0
shrinkage=0.03


Tree=23
num_leaves=35
num_cat=0
split_feature=23 15 23 9 15 23 15 15 23 23 9 9 22 23 16 25 9 15 15 23 23 25 27 23 11 15 9 15 23 23 20 15 22 14
split_gain=29.592 17.1032 23.8688 18.9128 23.8407 22.2572 17.6132 17.2513 19.2575 14.3379 25.6607 14.0674 13.2636 13.103 12.8599 15.4141 12.0369 15.806 14.5704 20.765 11.5345 11.0284 10.0831 10.4955 10.0051 9.13639 8.70383 16.3065 8.15071 8.11013 6.98418 6.61512 5.97799 5.76879
threshold=61.12444769896382 97.38687566908375 37.32427331709146 7.4655779060417444 93.322592865214162 50.91165428392641 94.119572016867565 95.618775851813055 50.91165428392641 20.263869396103605 5.5372502122224345 6.8474398281460811 37.957879813975225 49.01877074250352 1.0000000180025095e-35 13.168450251136028 7.4079537098791972 99.374222960204534 97.041306667746696 71.634115218996996 48.174304749944675 61.357477417764485 7.121766449876584 80.592005123582553 7.1747094082726166 98.89843485224803 5.2383524729247837 99.460321770714003 69.947137907974152 68.065402279823019 37.897493492645566 91.522749926371986 60.940529303543499 71.500000000000014
decision_type=2 2 2 2 2 2 2 2 2 2 2 2 2 2 2 2 2 2 2 2 2 2 2 2 2 2 2 2 2 2 2 2 2 2
left_child=1 2 6 7 12 -6 9 20 -9 31 -11 13 -5 33 21 28 17 30 24 -20 -4 22 32 25 -18 -24 27 -15 -16 -19 -17 -1 -2 -3
right_child=14 11 3 4 5 -7 -8 8 -10 10 -12 -13 -14 26 15 16 18 29 19 -21 -22 -23 23 -25 -26 -27 -28 -29 -30 -31 -32 -33 -34 -35
leaf_value=-0.0082891525673027978 0.0064910468304763122 0.0012193717190928936 0.011553955874731023 0.022973037124743818 -0.020067588127399755 -0.00042002156366726463 -0.019163781229640072 -0.0061347012530091382 0.015345759144808254 0.012165751173799137 -0.0053925462432031735 -0.030244530497914947 0.0022211042757938212 0.01724881320581648 -0.03265331320995532 0.035201165130488737 0.02116786540046664 -0.0092029543906579879 -0.022225613767452922 0.0027469505735267072 0.033369651502343903 -0.02101497925666386 0.022248591520948938 0.039692369010588167 -0.011686440138949756 0.0075075572862630087 -0.0099601791684591889 -0.011168877593985611 -0.00067866483828536597 0.013372162020489861 0.002283073666430253 -0.025227963952334266 -0.021785638540027529 -0.027348743425437746
leaf_weight=76.923289582133293 19.727003470063213 7.336128205060958 129.63344486057758 37.706257104873657 84.185830220580101 136.45883367955685 73.15387812256813 106.40486070513725 57.713423863053322 102.74398726224899 274.58275730907917 26.946645453572273 106.37804593145847 40.386637806892395 16.020011976361278 28.977741584181786 38.391049280762672 25.699840605258942 43.036298975348473 96.524751603603363 26.721142917871475 8.5409895628690702 65.1783047914505 15.367719799280165 10.248020693659781 94.982648894190788 76.031675517559052 32.504032596945763 13.585700392723082 31.487798511981964 7.7729963809251776 29.443884029984474 9.8650745153427106 33.423876479268074
leaf_count=287 83 29 561 174 296 554 255 406 259 443 1059 87 436 177 52 145 178 100 151 405 133 30 298 80 39 407 283 121 55 141 33 98 35 110
internal_value=2.22519e-06 -0.00219365 -0.000831047 0.00291201 -0.0017463 -0.007955 -0.00544705 0.00823012 0.00139203 -0.00335307 -0.000591714 -0.00997051 0.0077177 -0.00702992 0.00610853 0.00219659 0.00437846 0.0131368 0 -0.00493167 0.0153585 0.0117808 0.0131948 0.0159284 0.0141033 0.0135642 -0.0028465 0.00449858 -0.0182849 0.00312575 0.0284512 -0.0130729 -0.00281709 -0.0220796
internal_weight=1984.08 1458.68 1242.05 685.202 364.729 220.645 556.848 320.473 164.118 483.694 377.327 216.629 144.084 189.682 525.406 311.744 282.138 93.9384 188.2 139.561 156.355 213.662 205.121 175.529 48.6391 160.161 148.922 72.8907 29.6057 57.1876 36.7507 106.367 29.5921 40.76
internal_count=8000 5768 4961 2819 1460 850 2142 1359 665 1887 1502 807 610 720 2232 1299 1192 419 773 556 694 933 903 785 217 705 581 298 107 241 178 385 118 139
is_linear=0
shrinkage=0.03


Tree=24
num_leaves=35
num_cat=0
split_feature=23 15 23 9 15 15 16 25 25 15 9 23 9 23 11 17 9 23 15 23 15 11 23 9 23 23 10 15 9 23 21 23 0 9
split_gain=28.0722 17.1687 22.8749 26.8607 22.7566 12.846 13.7158 13.5918 12.8936 11.6133 17.2524 14.5245 12.8261 11.1401 10.5786 13.7027 10.318 10.7892 17.7564 9.83859 13.1366 9.60719 9.35054 8.95288 8.63237 8.54908 8.64693 11.7141 8.02865 9.30654 7.62736 7.3748 6.6671 6.59174
threshold=55.661357834967824 95.618775851813055 34.986915210476916 7.2861415297362031 91.47913272342187 94.758931317608372 1.0000000180025095e-35 44.185125479290782 13.168450251136028 92.071249833765407 6.0216474480949591 17.167124302560506 6.7080097321047978 47.364930403475022 3.6475755021481739 1747.9973351261981 5.44021261791766 37.092098136684335 97.965720481911092 48.174304749944675 94.264422102627094 5.8448978401192475 21.558319612082354 9.5098867832569081 46.973899980529893 49.44578297336755 5.6855073690938882 98.773170571548533 5.2108866331964991 74.834618070684172 12.627665423977971 56.974403280937828 54.500000000000007 9.3816883332024066
decision_type=2 2 2 2 2 2 2 2 2 2 2 2 2 2 2 2 2 2 2 2 2 2 2 2 2 2 2 2 2 2 2 2 2 2
left_child=1 2 9 19 23 32 7 28 -8 11 22 -1 -13 -6 15 -10 17 -3 24 20 -4 -9 -11 -5 -19 -18 27 -27 -7 -30 -20 -16 -2 -23
right_child=5 16 3 4 13 6 8 21 14 10 -12 12 -14 -15 31 -17 25 18 30 -21 -22 33 -24 -25 -26 26 -28 -29 29 -31 -32 -33 -34 -35
leaf_value=-0.014950429970718064 0.013959934305639908 -0.028828741509522735 0.019492477973818232 0.024486367064802107 -0.010531080949439988 0.032211684890241565 -0.016705716327873665 -0.0079667455964258713 0.019628581696320806 -0.024854583261770379 -0.025649971188866815 0.0092466539992586763 -0.0052210157667153794 0.0019499868470361831 -0.031929938157328905 0.0016836108252131915 -0.024329147234543692 0.0013767183399050259 0.023207262078542117 0.033480599930147022 0.0023160992959188804 0.044836283084939754 -0.0022398304575057845 -0.0037856136392047123 0.022578475882541072 -0.00046095343027044075 -0.02866287037627642 -0.038629709915601655 0.00739465433527181 0.023081593546821585 -0.016474570175485544 -0.0020114499517416284 0.046750172635433393 -0.0029735854623126668
leaf_weight=57.53103119134903 18.076454609632496 13.6054270863533 76.713601365685463 36.831125810742378 148.58756472170353 16.769130483269691 36.468993589282036 56.881223350763321 53.960205540060997 19.115842014551163 53.458501890301704 109.2422050088644 110.5286511182785 112.10594138503075 7.6218161135911933 133.93477666378021 53.235595628619194 55.557143434882164 4.4365556091070166 18.904859602451324 85.673588544130325 5.5578622967004758 117.5836716145277 13.309600457549093 25.365471541881561 67.87207019329071 16.499164655804634 7.9483579248189917 175.09101527929306 42.970823988318443 55.484113797545433 162.60262705385685 8.6739176511764509 4.2812321186065674
leaf_count=205 80 44 346 178 553 81 133 220 247 64 179 459 426 459 25 558 179 222 20 95 351 29 463 54 116 272 55 24 740 203 198 659 46 17
internal_value=1.948e-06 -0.00269934 -0.000733497 0.00377288 -0.00156344 0.00471652 0.00391831 0.00873354 0.000220669 -0.00549007 -0.0112012 -0.00154682 0.00194507 -0.00514347 0.00196947 0.00688439 -0.0089626 -0.00350324 -0.000976855 0.012947 0.0104813 -0.0031368 -0.00547776 0.0168773 0.00813572 -0.0147016 -0.00904449 -0.00463226 0.0121315 0.0105317 -0.0133693 -0.00342216 0.025083 0.0237906
internal_weight=1982.48 1259.59 959.586 492.126 310.834 722.89 696.14 301.551 394.588 467.46 190.158 277.302 219.771 260.694 358.119 187.895 300.004 154.449 140.843 181.292 162.387 66.7203 136.7 50.1407 80.9226 145.555 92.3196 75.8204 234.831 218.062 59.9207 170.224 26.7504 9.83909
internal_count=8000 4962 3832 2036 1244 3038 2912 1290 1622 1796 706 1090 885 1012 1489 805 1130 600 556 792 697 266 527 232 338 530 351 296 1024 943 218 684 126 46
is_linear=0
shrinkage=0.03


Tree=25
num_leaves=35
num_cat=0
split_feature=23 23 9 25 24 23 25 21 19 9 27 22 7 23 0 22 25 0 9 17 17 17 7 8 3 7 17 17 17 26 14 4 21 8
split_gain=26.6507 13.7118 12.3419 12.488 11.08 8.65469 8.30858 7.75129 11.1005 7.55733 11.061 9.66351 8.18279 10.52 15.4721 9.38003 9.30742 9.26358 7.00876 6.31527 6.13641 10.7837 9.44187 5.82496 7.89355 7.48012 5.27914 5.19511 13.345 7.73962 4.77308 2.91049 2.87728 2.84623
threshold=61.12444769896382 13.195514424410261 8.7422525273669365 13.168450251136028 1.0000000180025095e-35 80.592005123582553 62.933843283081522 15.671935551046399 2.5000000000000004 4.5154523201959336 13.548061630551038 42.496370647207122 1.5000000000000002 33.043249110584604 16.500000000000004 76.584185142683793 11.73471140219339 52.500000000000007 4.4713270289117668 2340.7073933698343 2545.3098675740052 2401.1986353724174 1.0000000180025095e-35 2.5000000000000004 150.04655781503399 1.5000000000000002 2087.4205296411869 1514.4141189635504 1787.9655028223699 0.70397083237757374 165.50000000000003 1.0000000180025095e-35 18.948834501953737 4.5000000000000009
decision_type=2 2 2 2 2 2 2 2 2 2 2 2 2 2 2 2 2 2 2 2 2 2 2 2 2 2 2 2 2 2 2 2 2 2
left_child=1 31 3 4 -2 6 27 19 30 10 11 -3 13 14 -11 16 -14 -15 -5 -7 21 -12 -22 24 -20 -25 -17 29 -29 -4 -9 -1 -33 -10
right_child=2 9 5 18 -6 7 -8 8 33 12 20 -13 15 17 -16 26 -18 -19 23 -21 22 -23 -24 25 -26 -27 -28 28 -30 -31 -32 32 -34 -35
leaf_value=-0.0081573397918371614 -0.02685405369083135 0 -0.022468938738943938 0.038941026649931536 0.015964377609150475 -0.025587000803701312 -0.034089439020487527 0.037081676045484957 -0.016283172215135817 0.020970442794797182 0.0016272420107192854 0.042400770921791987 0.014459344796135483 -0.0019411774525106588 -0.008248716944792827 0.029428065706093742 -0.0079551069661023422 0.0053619784330348691 0 0.018928031078766804 0.038070991783965391 -0.028165143141442184 0.0014165906419407969 0.011899530193365553 0.019235093435415289 -0.0013237214095170007 0 0.021679780786046644 -0.0034156494285074034 0.013122080596189568 0.00098411784015358999 -0.0099165135806564084 -0.037397422965760978 0.012066387112112525
leaf_weight=9.7459809631109255 14.891472205519676 8.3168039023876208 20.848720490932468 8.0217349678277952 8.1559253334999084 7.5954137891530973 7.2077283859252921 18.973126828670505 7.2528953254222852 17.311059802770615 80.974020317196846 11.919844776391981 17.089372575283051 352.48355877399445 222.20852530002594 9.6526515036821383 374.15176479518414 279.63411799073219 23.792508885264397 4.2199295908212662 9.2658897787332553 12.396068871021269 20.225372806191444 95.733568161725998 97.593400254845619 62.989545211195946 12.08674970269203 22.93511326611042 107.7627120167017 7.0652578920125952 4.4114912450313559 5.7585286647081402 13.14704844355583 5.1939949542284012
leaf_count=36 50 33 73 42 37 27 23 98 27 77 325 59 75 1398 839 46 1444 1159 98 20 45 41 81 423 449 260 49 104 428 31 19 21 40 23
internal_value=1.82936e-06 -0.00208366 0.00580098 0.00961052 -0.0114366 0.000215792 -0.00299562 0.0114833 0.0184627 -0.0016651 0.00485626 0.0253105 -0.00239685 -0.000740422 -0.00609617 -0.00587634 -0.00695383 0.00128075 0.0113216 -0.00913837 0.0014028 -0.0023157 0.013314 0.0104821 0.0154647 0.00661904 0.0131283 -0.0015037 0.000968705 -0.0132179 0.0305924 -0.0225765 -0.0295324 -0.00397495
internal_weight=1981.01 1456.37 524.645 311.178 23.0474 213.466 165.82 47.6469 35.8315 1427.72 143.098 20.2366 1284.62 871.637 239.52 412.981 391.241 632.118 288.131 11.8153 122.861 93.3701 29.4913 280.109 121.386 158.723 21.7394 158.612 130.698 27.914 23.3846 28.6516 18.9056 12.4469
internal_count=8000 5768 2232 1359 87 873 659 214 167 5671 584 92 5087 3473 916 1614 1519 2557 1272 47 492 366 126 1230 547 683 95 636 532 104 117 97 61 50
is_linear=0
shrinkage=0.03


Tree=26
num_leaves=35
num_cat=0
split_feature=23 23 23 9 6 7 11 14 23 9 10 0 25 9 3 25 22 19 3 0 9 17 9 21 11 9 11 13 22 14 3 21 14 12
split_gain=25.1812 11.7089 9.79304 9.66079 9.98977 9.48946 10.2684 13.2445 10.1127 15.0816 9.69679 9.46127 10.2016 9.19571 9.50617 8.63058 7.61369 7.14785 6.92871 7.88838 7.05567 6.6097 6.37268 6.12677 5.69504 7.15408 6.98163 5.66154 12.056 7.45272 4.7754 4.53343 4.49636 4.20267
threshold=50.91165428392641 13.195514424410261 83.600005847292195 8.6910787790890254 1.0000000180025095e-35 1.0000000180025095e-35 1.3481979514596991 136.50000000000003 62.147902847326144 4.7262489664046186 6.2861967624409738 73.500000000000014 52.150681904246902 4.2572292516321486 188.82513040553553 11.73471140219339 61.162263607355847 1.5000000000000002 182.10485026457414 22.500000000000004 9.278196774834937 2151.2540191163157 9.5098867832569081 33.080724802419489 4.2197661149731607 4.4012407025757305 4.3714071271200927 1.0000000180025095e-35 50.852084255638523 75.500000000000014 193.0553024403267 15.869505119790501 132.50000000000003 1.5000000000000002
decision_type=2 2 2 2 2 2 2 2 2 2 2 2 2 2 2 2 2 2 2 2 2 2 2 2 2 2 2 2 2 2 2 2 2 2
left_child=1 -1 3 5 18 6 32 -8 10 -10 -7 30 -13 16 15 21 27 -18 20 -20 -5 -15 31 -17 25 -16 -26 29 -29 -3 -6 -4 -2 -24
right_child=2 13 22 4 11 8 7 -9 9 -11 -12 12 -14 14 24 23 17 -19 19 -21 -22 -23 33 -25 26 -27 -28 28 -30 -31 -32 -33 -34 -35
leaf_value=-0.022019612286585933 0.016726150668076197 0.027430676109803862 0.0044646551850790282 -0.0015866869627296474 -0.00089430006055925325 0.0003579607574957547 0.01445569774031279 -0.0055449017872753496 0.045125550124500549 0.005826528797754197 -0.021468606763249309 0.038070919571536896 -0.015691308994888489 0.034189761029031936 -0.031235076603101337 -0.0014162532747946271 0.04499286355997914 0.0055604781356277328 0.037153588883049961 -0.0018605012656445861 -0.017930669209257757 0 -0.012327125777341606 -0.011001689478522708 -0.046408817275768573 -0.0037117030929449827 -0.012939010493241898 0.033313980453890418 -0.021873017372907901 -0.016221119572158077 0.01845847306434089 0.037008200309837543 0.040143544380352135 0.016950391215094684
leaf_weight=28.527806654572487 21.355377539992332 4.0753525942564037 5.6723556071519878 40.72506545484066 108.29159887135029 203.07440866529942 83.833795219659805 45.505280390381813 9.080337852239607 193.33607113361359 19.886157751083374 12.8045811355114 3.8976952880620948 10.229307845234873 8.9920125603675825 700.73639838397503 8.5402262061834353 8.7258476316928846 5.213650479912757 32.130790904164314 60.099763751029968 10.034775748848913 7.3520080894231823 65.797188445925713 6.2847549468278876 132.14834816753864 57.77970615029335 10.755621448159216 4.9805526584386817 18.407552346587181 12.588563039898871 16.347838222980499 12.998291313648222 10.08964668214321
leaf_count=97 95 19 25 164 436 827 369 179 49 830 71 64 14 49 29 2777 43 36 26 130 220 40 29 246 18 517 213 51 17 66 57 85 65 47
internal_value=2.43081e-06 -0.00309553 0.00369523 0.00301765 -0.00159932 0.00518891 0.0113349 0.00737489 0.00280552 0.00766189 -0.00157939 0.00409219 0.0251326 -0.00257031 -0.00324013 -0.00172982 0.00926605 0.0257001 -0.00730773 0.00359534 -0.0114046 0.0174656 0.0183033 -0.00224952 -0.00899444 -0.00554938 -0.01645 0.0015904 0.0154153 -0.00787199 0.00109872 0.0290107 0.0259412 0.00426938
internal_weight=1980.3 1076.02 904.283 864.821 275.752 589.07 163.693 129.339 425.377 202.416 222.961 137.582 16.7023 1047.49 992.002 786.798 55.4852 17.2661 138.169 37.3444 100.825 20.2641 39.4618 766.534 205.205 141.14 64.0645 38.2191 15.7362 22.4829 120.88 22.0202 34.3537 17.4417
internal_count=8000 4218 3782 3596 1111 2485 708 548 1777 879 898 571 78 4121 3889 3112 232 79 540 156 384 89 186 3023 777 546 231 153 68 85 493 110 160 76
is_linear=0
shrinkage=0.03


Tree=27
num_leaves=35
num_cat=0
split_feature=23 15 23 9 9 23 15 15 23 9 23 15 15 9 9 9 9 9 23 23 15 23 6 15 23 6 9 23 11 23 15 15 20 9
split_gain=23.7219 19.3974 19.6171 19.3435 16.896 16.2284 25.3932 14.3987 17.8151 21.9351 14.3371 17.4249 15.6532 13.8722 13.2229 12.9918 11.478 11.0278 14.4755 10.729 10.5236 9.79863 9.78177 9.53395 13.6409 9.32053 9.11956 9.0685 9.0675 9.05325 12.5032 9.02693 8.48382 8.14275
threshold=50.91165428392641 94.119572016867565 20.263869396103605 5.2621182928875569 8.1285856100500276 40.489455875718349 96.488297960139406 97.256884973026146 69.947137907974152 5.2621182928875569 33.043249110584604 91.47913272342187 91.967472889057532 6.1892904749757243 7.5619204617270102 7.4433051957202183 4.3340171949354271 8.7167045490636621 60.939054273405752 83.600005847292195 99.420601025267374 35.44602928069839 1.0000000180025095e-35 94.037290659282149 63.204258994855344 1.0000000180025095e-35 6.3340289864104546 30.41015810426336 5.5682698145580343 62.147902847326144 99.460321770714003 100.44556874612836 34.2604332510966 9.5098867832569081
decision_type=2 2 2 2 2 2 2 2 2 2 2 2 2 2 2 2 2 2 2 2 2 2 2 2 2 2 2 2 2 2 2 2 2 2
left_child=1 2 -1 21 5 26 13 15 9 29 12 -12 -5 -7 20 28 -8 18 -11 25 -10 22 -4 -17 33 -16 27 -3 -2 30 -9 -21 -22 -25
right_child=7 4 3 10 -6 6 16 8 14 17 11 -13 -14 -15 19 23 -18 -19 -20 31 32 -23 -24 24 -26 -27 -28 -29 -30 -31 -32 -33 -34 -35
leaf_value=-0.012010328630059295 0.024879751038062999 -0.036479469331937193 0.0027097132124723577 -0.00053122916853323157 -0.032130690361320581 0.017056586888486783 0.0068703583654287142 0.015637743747623726 0.048990815318391882 -0.014744037793494391 0.017077979109134913 1.8836657447615463e-05 -0.018325085028509373 -0.0026552664848230427 -0.0075724357518220636 0.020288653098359023 -0.01849187367794412 -0.025227068628762658 0.00065072753410285356 0.030724658443132498 0.035602658441931674 0.052576970574111342 0.023920886634805259 0.0015923657470498847 0.014256853282565677 0.007348954683835493 -0.039588894773521392 -0.0092883327797556418 -0.0079190253479410749 0.025666277347743419 -0.0093421333766219063 0.0013399187926141482 0.0061212029457469383 -0.01591593944632946
leaf_weight=105.65490955114365 57.737867817282677 12.730731204152105 44.687640175223351 135.56360338628292 25.481709912419319 60.806433573365211 19.554341539740562 37.20474000275135 9.2278351336717588 93.905478999018669 69.157549545168877 244.80197665095329 66.583032622933388 66.870246335864067 78.749274060130119 34.098145380616188 80.370295166969299 29.865746378898621 130.46508187055588 20.588620632886887 11.852772638201712 5.7726231217384329 35.737745299935341 112.6001210808754 67.519904464483261 71.782783985137939 13.140378445386885 88.804351791739464 8.3294989317655546 21.952016040682793 34.380332440137863 18.036579295992851 35.584477782249451 30.009732529520988
leaf_count=385 277 39 184 536 82 271 80 163 51 339 319 975 235 263 309 158 282 100 536 105 61 31 164 462 301 307 40 332 33 107 130 77 155 111
internal_value=2.85081e-06 -0.0030042 -9.15882e-05 0.00199251 -0.00859177 -0.00680409 -0.00213214 0.00358804 0.00083841 -0.00351897 -0.000195281 0.00380412 -0.00643414 0.00669764 0.00702518 0.00882485 -0.013465 -0.00810002 -0.0057731 0.0031703 0.0197315 0.0151313 0.0122455 0.00558913 0.00315826 -0.000416899 -0.0160046 -0.0128216 0.0206427 0.00885916 0.00356441 0.0172352 0.013732 -0.00206706
internal_weight=1979.61 1075.72 707.959 602.304 367.758 342.277 227.601 903.891 593.596 347.773 516.106 313.96 202.147 127.677 245.822 310.295 99.9246 254.236 224.371 189.157 56.6651 86.198 80.4254 244.228 210.13 150.532 114.675 101.535 66.0674 93.5371 71.5851 38.6252 47.4373 142.61
internal_count=8000 4218 2829 2444 1389 1307 896 3782 2440 1375 2065 1294 771 534 1065 1342 362 975 875 798 267 379 348 1032 874 616 411 371 310 400 293 182 216 573
is_linear=0
shrinkage=0.03


Tree=28
num_leaves=35
num_cat=0
split_feature=28 20 11 14 17 3 2 17 22 22 2 2 21 27 15 27 19 17 20 28 27 8 16 22 27 22 15 22 28 3 9 21 21 21
split_gain=6.18539 6.42477 7.14336 9.66616 7.12357 7.05274 6.42434 6.14249 10.797 19.7727 6.72453 8.45258 9.15486 6.67342 6.14555 5.96624 6.57228 5.39895 5.64339 5.37662 5.26601 11.9466 12.6571 15.2207 11.6634 6.48988 7.22816 6.00711 5.98006 9.89378 7.69224 5.71705 7.93247 5.92074
threshold=0.0013592349230198816 32.999119534861912 3.1567091702910917 103.50000000000001 1729.8423584143304 156.44319936074422 98.624822489309381 1347.4915984813124 72.65063060016162 24.86629839260587 120.93325199906089 118.73715496861652 27.117397214804537 7.9585156412995355 98.517480672006101 6.4917136506123763 1.5000000000000002 2671.3333170623537 37.119277580231241 0.0013792809910435878 12.822406226625928 3.5000000000000004 1.0000000180025095e-35 28.755334006791774 9.9855426129188398 23.847416175727172 95.99042484130058 41.080005866537313 0.0012632371210948977 148.52617887984212 6.3340289864104546 32.452387370211561 33.741435956567017 31.012721711141051
decision_type=2 2 2 2 2 2 2 2 2 2 2 2 2 2 2 2 2 2 2 2 2 2 2 2 2 2 2 2 2 2 2 2 2 2
left_child=15 2 5 4 -4 -2 -5 8 9 -3 11 12 -9 -12 -11 16 -1 18 -18 -15 21 25 24 -24 -23 26 -17 -27 31 -30 -31 33 -33 -22
right_child=1 7 3 6 -6 -7 -8 10 -10 14 13 -13 -14 19 -16 20 17 -19 -20 -21 28 22 23 -25 -26 27 -28 -29 29 30 -32 32 -34 -35
leaf_value=0.0030761843662636748 -0.0045764253545547565 0.057501805348388342 0 -0.029317445919365515 0.051719318632287049 0.02633911776323615 0.0035659877507703635 -4.3595441588193412e-05 0.034120284468843784 -0.0097307874127965394 0.0095106728614464085 0.032791746326321917 -0.012331091444738757 -0.042797057029575723 0.016462907179535396 0.036248004379853122 -0.015490455080452957 -0.033877301455919287 0.014341118989231762 -0.013648054011231535 -0.00051952773168772494 0.0076538200887721437 0.033551148568946303 -0.0013707833864027251 0.0284414293641428 -0.0075267620586273202 -0.00012391726148743376 0.0017319178421733848 -0.016843002973548345 0.02652404271930605 0.0031166068589228006 -0.015830302779575818 0.0021164405255021594 0.010533850350870701
leaf_weight=30.051482558250427 9.2619090676307696 4.6320794224739066 6.6970488131046313 12.402783796191217 3.6890115588903427 20.468045368790627 8.7072783261537534 156.3818242251873 8.8542155474424344 50.784059271216393 9.8520372211933118 5.4029509574174872 84.446589231491089 6.3249060362577429 9.2505010068416578 8.9268168210983294 24.500587493181232 10.400753468275068 7.0543080717325202 71.989952892065048 708.59264914691448 56.022797331213951 12.364069133996962 103.83110831677914 44.473028942942619 90.649162068963051 9.9553003609180433 204.42952059209347 10.723246037960051 24.599384382367134 27.227798163890839 49.638255253434181 38.897298127412796 46.256570070981979
leaf_count=124 36 25 27 41 20 96 36 632 43 192 42 26 316 19 42 44 90 34 31 267 2852 236 61 422 210 351 41 837 39 116 114 181 159 198
internal_value=3.50381e-06 -0.00300122 0.00600585 -0.00379102 0.0194177 0.0165412 -0.0155663 -0.00437011 0.00342174 -0.00078128 -0.00610218 -0.00351774 -0.00438376 -0.0132278 -0.00555383 0.000942169 -0.00745985 -0.0151276 -0.00858414 -0.0161816 0.00136847 0.00374114 0.00915584 0.0023449 0.0169509 0 0.0169567 -0.00109523 -1.52263e-05 0.00891279 0.0144013 -0.00068645 -0.00789095 0.000152479
internal_weight=1977.74 469.145 61.2261 31.4961 10.3861 29.73 21.1101 407.919 73.5209 64.6666 334.398 246.231 240.828 88.1669 60.0346 1508.59 72.0071 41.9556 31.5549 78.3149 1436.59 530.652 216.691 116.195 100.496 313.961 18.8821 295.079 905.935 62.5504 51.8272 843.385 88.5356 754.849
internal_count=8000 1860 256 124 47 132 77 1604 302 259 1302 974 948 328 234 6140 279 155 121 286 5861 2202 929 483 446 1273 85 1188 3659 269 230 3390 340 3050
is_linear=0
shrinkage=0.03


Tree=29
num_leaves=35
num_cat=0
split_feature=23 15 23 15 23 15 27 15 23 27 25 27 16 2 25 11 10 10 10 14 11 27 15 3 22 15 23 18 0 27 18 14 0 11
split_gain=22.7182 16.7418 20.4316 12.7445 13.1439 12.5151 12.1494 11.7832 12.9653 19.2726 10.8847 10.0244 9.74651 17.1521 12.3166 10.5762 9.4698 9.1749 8.65533 8.40597 8.10127 7.88183 8.63551 7.90687 7.87941 7.85622 10.0951 9.39286 7.78441 7.40918 6.4917 5.57895 5.39258 6.84607
threshold=55.661357834967824 95.77903382577658 34.986915210476916 96.032655512595781 69.947137907974152 91.47913272342187 20.949669491472328 92.107449534824681 17.167124302560506 19.417238135260529 45.963344379164745 20.210727374556637 1.0000000180025095e-35 40.790652401485424 44.185125479290782 4.5334156870340809 2.0865736886887389 5.8983964675597429 8.4005444326186396 176.50000000000003 7.4658654497538874 6.0285904367737659 100.17235543421201 160.52522681955736 68.120498569525708 97.965720481911092 46.973899980529893 2.6046329527576608 56.500000000000007 9.181657523068429 0.56245369046826788 158.50000000000003 48.500000000000007 6.4329656384167242
decision_type=2 2 2 2 2 2 2 2 2 2 2 2 2 2 2 2 2 2 2 2 2 2 2 2 2 2 2 2 2 2 2 2 2 2
left_child=1 2 7 28 12 18 10 8 -1 -10 -7 21 14 -14 24 -15 -16 25 20 -8 -4 23 -23 -6 -5 26 31 -28 32 -9 -31 -3 -2 -34
right_child=3 17 5 4 11 6 19 29 9 -11 -12 -13 13 15 16 -17 -18 -19 -20 -21 -22 22 -24 -25 -26 -27 27 -29 -30 30 -32 -33 33 -35
leaf_value=-0.013799933127727234 0.012511508467222829 -0.0074256352221494602 0.025012426780508423 0.011884843256785009 -0.040951149057088111 -0.001827924365417429 0.021340921971514361 -0.030577552670905523 -0.0026849281635628335 0.018280610932855219 0.012046350384869056 0.03631855771600298 -0.031106267126499085 0.0021310855239410052 0.01992633683234369 -0.014669456597141677 -0.017237826495407227 -0.030918250096870676 -0.02168068923525656 -0.011237418823437413 -0.01361838520051987 0.012574585860310086 0.00039052936262079014 0.0002597132574329291 -0.0058762042895236901 -0.015455123889005939 0.009660442029607615 -0.0097641469224694962 0.027079885337139946 0.031990110407176191 -0.0098547188732718664 -0.026364992153971763 0.015077147161750107 -0.032542870562840845
leaf_weight=57.908061280846596 48.163681089878082 69.704290151596069 44.564913704991341 112.25073082745075 5.5666566193103817 345.31108744442463 41.825909867882729 15.844084933400152 171.41195878386497 50.950866848230362 59.463260963559151 10.612842410802839 20.967837333679199 123.60705994069576 7.2550625205039969 45.961253196001053 33.237073451280594 16.051166743040085 4.4147204905748358 8.1932082027196866 5.1467441022396079 147.34841518104076 82.772050485014915 14.289112538099287 27.470712751150131 78.908850118517876 61.558513969182968 34.764557898044586 30.899382948875427 3.1489570438861838 169.42648799717426 18.017272517085075 4.6261854320764524 5.7726159989833832
leaf_count=208 212 263 217 486 17 1375 191 51 670 226 256 56 69 513 33 170 120 52 16 31 20 654 351 59 108 283 262 132 150 15 634 60 21 19
internal_value=4.35616e-06 -0.00242788 -0.000570802 0.00425244 0.00273672 0.00358368 0.00194225 -0.00509428 -0.00116798 0.00210414 0.000200399 0.00789942 -0.000878123 -0.00561912 0.00410185 -0.00239925 -0.0103664 -0.00890838 0.0172074 0.0158616 0.0208541 0.00664082 0.0082223 -0.0112879 0.00834654 -0.00751958 -0.00407158 0.00258193 0.0148521 -0.0108954 -0.00902031 -0.011435 0.00822807 -0.010907
internal_weight=1977.42 1256.61 977.61 720.801 631.339 508.92 454.793 468.69 280.271 222.363 404.774 260.589 370.75 190.536 180.214 169.568 40.4921 279.005 54.1264 50.0191 49.7117 249.976 230.12 19.8558 139.721 262.953 184.045 96.3231 89.4619 188.42 172.575 87.7216 58.5625 10.3988
internal_count=8000 4962 3910 3038 2636 2106 1853 1804 1104 896 1631 1137 1499 752 747 683 153 1052 253 222 237 1081 1005 76 594 1000 717 394 402 700 649 323 252 40
is_linear=0
shrinkage=0.03


Tree=30
num_leaves=35
num_cat=0
split_feature=23 15 23 15 23 17 14 2 0 11 23 15 23 26 11 7 14 0 15 2 11 14 2 17 3 18 2 18 2 23 14 15 15 19
split_gain=21.4802 19.3711 18.0848 12.1212 16.4442 10.8622 10.5812 13.1267 11.9763 10.4161 11.7188 14.1471 9.69196 9.52893 9.07911 8.81777 13.0356 8.31991 8.01901 7.38797 7.58364 8.20697 7.52541 6.65927 13.9534 8.24323 8.3279 9.32027 7.38432 7.30557 6.84327 6.49989 6.29224 6.74617
threshold=50.495247240720154 94.119572016867565 20.263869396103605 96.799230210220273 71.634115218996996 2481.5975799980715 113.50000000000001 34.350679706504742 72.500000000000014 3.5830237976419057 32.609263698907661 96.488297960139406 42.794143546989339 0.31650652647468031 2.1509286472180835 1.0000000180025095e-35 115.50000000000001 32.500000000000007 98.819064976611855 38.619117010688406 6.0707674500949844 122.50000000000001 43.735719059724772 1664.6850492838432 166.81568949655923 0.76633974206581479 146.74126788951534 0.85338543895973673 133.26951699948131 57.959337403173841 87.500000000000014 100.8251543990603 91.522749926371986 1.5000000000000002
decision_type=2 2 2 2 2 2 2 2 2 2 2 2 2 2 2 2 2 2 2 2 2 2 2 2 2 2 2 2 2 2 2 2 2 2
left_child=1 2 32 23 19 15 8 -8 14 10 -3 17 -9 -10 -4 16 -6 -12 -17 -5 22 -22 -21 24 30 -25 27 -27 29 -26 -2 -7 33 -1
right_child=3 9 6 4 5 31 7 12 13 -11 11 -13 -14 -15 -16 18 -18 -19 -20 20 21 -23 -24 25 28 26 -28 -29 -30 -31 -32 -33 -34 -35
leaf_value=-0.014932769268667774 0.01270143762002671 -0.025605559725675787 0.0090176213934416265 -0.016354004480911559 0.038499689012175965 0.02397220126205021 0.04185390288618647 0.0023182828415090986 0.013230648209393995 -0.01650144237543863 -0.0083454502566618367 -0.013004766103433166 0.016844197124268739 -0.020760400296084246 -0.0032071047496431888 0.013852495794914434 0.0026803302397785762 0.007327683322851138 -0.0038539994480823649 0.020754243054538248 -0.00093398530593532538 -0.029231077039251166 -0.00062552905367812238 0.033393032949442548 -0.0037484589276320494 -0.02289250227851234 -0.020713543086385938 0.012505800811118501 0.050915791771392348 0.026437490078203629 -0.021549557627570812 -0.012220726102129879 -0.023403155402339663 0.002835435515790029
leaf_weight=41.649257823824883 6.3120851069688824 22.903296440839767 80.908679753541946 30.391676127910614 14.967283159494398 44.405569583177567 8.7627026587724668 239.32586455345154 8.5719433873891813 106.17265957593918 43.318408489227295 82.425847873091698 50.199370115995407 43.500746577978134 167.00960451364517 30.055472776293755 24.121040403842926 100.23312284052372 95.809744268655777 15.248631745576857 21.03922013938427 16.909773632884026 358.45985174179077 14.462037175893782 17.749708890914921 6.676134154200553 7.42443723976612 168.99730563163757 4.0709253996610633 11.60936003923416 24.166368469595909 4.6107210963964453 29.034613788127899 34.6035246104002
leaf_count=149 28 76 341 110 76 216 44 977 37 381 165 299 223 153 656 133 101 419 394 69 84 56 1448 73 72 24 27 750 22 56 87 18 98 138
